Time (s)	WE(1).Potential (V)
0.1166993	-0.032440185546875
0.3765489	-0.0319915771484375
0.6274251	-0.03172607421875
0.8774429	-0.03153076171875
1.127417	-0.03138427734375
1.3773728	-0.0312652587890625
1.6273553	-0.0311676025390625
1.8773378	-0.0310760498046875
2.1273208	-0.030999755859375
2.3773256	-0.030926513671875
2.627396	-0.030859375
2.892933	-0.0308013916015625
3.1428813	-0.030743408203125
3.3929328	-0.030694580078125
3.6428437	-0.0306427001953125
3.8928396	-0.030596923828125
4.1428252	-0.03055419921875
4.3927908	-0.0305145263671875
4.6427724	-0.030474853515625
4.8927564	-0.0304351806640625
5.1427383	-0.0303985595703125
5.4083453	-0.030364990234375
5.6583421	-0.0303314208984375
5.9239389	-0.0302978515625
6.1739192	-0.030267333984375
6.4239008	-0.0302398681640625
6.6738828	-0.0302093505859375
6.9238661	-0.0301849365234375
7.1738509	-0.0301544189453125
7.4238325	-0.0301300048828125
7.6738139	-0.0301055908203125
7.9237999	-0.0300811767578125
8.17378	-0.0300567626953125
8.4237626	-0.030035400390625
8.6737637	-0.0300140380859375
8.9237279	-0.02999267578125
9.173712	-0.0299713134765625
9.423695	-0.029949951171875
9.6736758	-0.029931640625
9.92366	-0.029913330078125
10.1736425	-0.02989501953125
10.4236282	-0.029876708984375
10.6736074	-0.0298583984375
10.9236111	-0.0298431396484375
11.1735917	-0.029827880859375
11.423555	-0.0298095703125
11.673539	-0.0297943115234375
11.9235227	-0.029779052734375
12.1735043	-0.0297637939453125
12.4234868	-0.0297515869140625
12.6734695	-0.029736328125
12.9234517	-0.02972412109375
13.1734347	-0.0297119140625
13.42342	-0.02969970703125
13.6734226	-0.0296875
13.9233862	-0.0296722412109375
14.1733661	-0.0296630859375
14.423349	-0.02965087890625
14.6733312	-0.0296417236328125
14.9233144	-0.0296295166015625
15.1732975	-0.029620361328125
15.4232811	-0.0296112060546875
15.6732633	-0.0295989990234375
15.9388696	-0.02958984375
16.1888731	-0.0295806884765625
16.4388553	-0.029571533203125
16.6888381	-0.0295623779296875
16.9388005	-0.02955322265625
17.2044105	-0.0295440673828125
17.4543897	-0.0295379638671875
17.7043715	-0.02952880859375
17.9543565	-0.029522705078125
18.2043377	-0.0295166015625
18.454322	-0.0295074462890625
18.704309	-0.0295013427734375
18.9542869	-0.0294952392578125
19.2042798	-0.0294891357421875
19.4542668	-0.029486083984375
19.7042352	-0.02947998046875
19.9542214	-0.029473876953125
20.2042021	-0.0294677734375
20.4541826	-0.0294586181640625
20.7041685	-0.0294525146484375
20.9541492	-0.029449462890625
21.2041313	-0.029443359375
21.4541359	-0.029437255859375
21.7041179	-0.0294342041015625
21.9540822	-0.0294281005859375
22.2040626	-0.0294219970703125
22.4540465	-0.0294189453125
22.7040285	-0.029412841796875
22.9540135	-0.0294097900390625
23.2039949	-0.0294036865234375
23.453978	-0.0293975830078125
23.70396	-0.02939453125
23.9539625	-0.0293914794921875
24.2039246	-0.029388427734375
24.4539255	-0.0293853759765625
24.7038921	-0.0293792724609375
24.9538742	-0.0293792724609375
25.2038569	-0.0293731689453125
25.4538393	-0.0293701171875
25.7038244	-0.0293670654296875
25.953804	-0.029364013671875
26.2037862	-0.029364013671875
26.4537691	-0.02935791015625
26.7037765	-0.0293548583984375
26.9538173	-0.0293548583984375
27.2037173	-0.029351806640625
27.4537251	-0.0293487548828125
27.7036845	-0.029345703125
27.9536655	-0.0293426513671875
28.2036495	-0.0293426513671875
28.453633	-0.0293426513671875
28.7036144	-0.029339599609375
28.9535967	-0.0293365478515625
29.2036133	-0.0293365478515625
29.453585	-0.02933349609375
29.7035452	-0.0293304443359375
29.9535287	-0.0293304443359375
30.2035115	-0.0293304443359375
30.4534932	-0.029327392578125
30.7034775	-0.029327392578125
30.9534623	-0.0293243408203125
31.2034438	-0.0293243408203125
31.4534242	-0.0293212890625
31.7034067	-0.0293212890625
31.9533929	-0.0293212890625
32.2033949	-0.0293182373046875
32.4533584	-0.0293182373046875
32.7033388	-0.0293182373046875
32.9533217	-0.0293182373046875
33.2033055	-0.029315185546875
33.4532871	-0.029315185546875
33.7032707	-0.029315185546875
33.9532533	-0.029315185546875
34.2032347	-0.029315185546875
34.4532177	-0.0293121337890625
34.7031997	-0.029315185546875
34.9531839	-0.029315185546875
35.2031671	-0.029315185546875
35.45315	-0.029315185546875
35.7031322	-0.029315185546875
35.9531138	-0.029315185546875
36.2030973	-0.0293121337890625
36.4530797	-0.029315185546875
36.7030632	-0.029315185546875
36.9530452	-0.029315185546875
37.2030299	-0.029315185546875
37.4530108	-0.0293121337890625
37.703016	-0.029315185546875
37.9529784	-0.029315185546875
38.2029594	-0.029315185546875
38.4529426	-0.029315185546875
38.702925	-0.029315185546875
38.9529098	-0.029315185546875
39.2028899	-0.0293182373046875
39.4528749	-0.0293182373046875
39.7028566	-0.0293182373046875
39.9528385	-0.0293182373046875
40.2028215	-0.0293182373046875
40.4528266	-0.0293182373046875
40.7028115	-0.0293212890625
40.9527703	-0.0293212890625
41.2027541	-0.0293212890625
41.4527376	-0.0293212890625
41.702718	-0.0293243408203125
41.952701	-0.0293243408203125
42.2026833	-0.029327392578125
42.4526702	-0.029327392578125
42.7026491	-0.0293304443359375
42.9526335	-0.0293304443359375
43.2026174	-0.02933349609375
43.4525975	-0.02933349609375
43.7025816	-0.02933349609375
43.9525639	-0.0293365478515625
44.2025472	-0.0293365478515625
44.4525309	-0.029339599609375
44.7025123	-0.029339599609375
44.9524935	-0.029339599609375
45.2024766	-0.0293426513671875
45.4524596	-0.0293426513671875
45.7024442	-0.029345703125
45.952425	-0.029345703125
46.2024084	-0.0293487548828125
46.4523919	-0.029351806640625
46.702374	-0.029351806640625
46.9523558	-0.029351806640625
47.2023416	-0.0293548583984375
47.4523224	-0.02935791015625
47.7023046	-0.02935791015625
47.9522886	-0.0293609619140625
48.2022719	-0.0293609619140625
48.4522542	-0.029364013671875
48.7022356	-0.029364013671875
48.9522186	-0.0293670654296875
49.2022013	-0.0293701171875
49.4521845	-0.0293701171875
49.702167	-0.0293731689453125
49.9521506	-0.0293731689453125
50.2021326	-0.029376220703125
50.4521162	-0.0293792724609375
50.7020977	-0.02938232421875
50.9521023	-0.02938232421875
51.2020864	-0.0293853759765625
51.4520461	-0.029388427734375
51.7020336	-0.0293914794921875
51.9520138	-0.0293914794921875
52.201995	-0.02939453125
52.4519773	-0.0293975830078125
52.7019615	-0.029400634765625
52.9519426	-0.029400634765625
53.2019261	-0.0294036865234375
53.4519113	-0.02940673828125
53.7019093	-0.02940673828125
53.9518795	-0.0294097900390625
54.2018565	-0.029412841796875
54.4518394	-0.0294158935546875
54.7018224	-0.0294189453125
54.9518075	-0.0294219970703125
55.2017883	-0.029425048828125
55.4517706	-0.0294281005859375
55.7017579	-0.0294281005859375
55.9517598	-0.02943115234375
56.2017215	-0.0294342041015625
56.4517253	-0.029437255859375
56.7017072	-0.029437255859375
56.9516666	-0.0294403076171875
57.2016492	-0.029443359375
57.4516317	-0.029443359375
57.7016166	-0.029449462890625
57.9515975	-0.029449462890625
58.2015813	-0.0294525146484375
58.4515648	-0.02945556640625
58.7015468	-0.0294586181640625
58.9515291	-0.029461669921875
59.2015163	-0.0294647216796875
59.4514938	-0.0294677734375
59.7014766	-0.0294677734375
59.9514823	-0.0294708251953125
