Potential applied (V)	WE(1).Potential (V)	WE(1).Current (A)
0.102386474609375	0.10272216796875	7.11059570312506E-06
0.104827880859375	0.105316162109375	7.08007812499994E-06
0.107269287109375	0.107635498046875	7.11059570312506E-06
0.109710693359375	0.110076904296875	7.14111328125003E-06
0.112152099609375	0.112518310546875	3.87573242187494E-07
0.114593505859375	0.114990234375	4.24194335937503E-07
0.117034912109375	0.117523193359375	4.57763671875E-07
0.119476318359375	0.119903564453125	4.91333007812497E-07
0.121917724609375	0.1224365234375	5.15747070312503E-07
0.124359130859375	0.12481689453125	5.59387207031251E-07
0.126800537109375	0.12725830078125	5.859375E-07
0.129241943359375	0.129669189453125	6.0699462890625E-07
0.131683349609375	0.132110595703125	6.35681152343751E-07
0.134124755859375	0.13458251953125	6.56738281249999E-07
0.136566162109375	0.137054443359375	6.976318359375E-07
0.139007568359375	0.139434814453125	7.159423828125E-07
0.141448974609375	0.141937255859375	7.366943359375E-07
0.143890380859375	0.1444091796875	7.5775146484375E-07
0.146331787109375	0.14678955078125	7.763671875E-07
0.148773193359375	0.149200439453125	7.9254150390625E-07
0.151214599609375	0.151763916015625	8.0230712890625E-07
0.153656005859375	0.154205322265625	8.28857421875E-07
0.156097412109375	0.15679931640625	8.447265625E-07
0.158538818359375	0.1591796875	8.6273193359375E-07
0.160980224609375	0.161651611328125	8.7310791015625E-07
0.163421630859375	0.16400146484375	8.88671875E-07
0.165863037109375	0.166534423828125	9.0972900390625E-07
0.168304443359375	0.1689453125	9.27734375E-07
0.170745849609375	0.17132568359375	9.417724609375E-07
0.173187255859375	0.173828125	9.5672607421875E-07
0.175628662109375	0.17633056640625	9.6466064453125E-07
0.178070068359375	0.178741455078125	9.77783203125E-07
0.180511474609375	0.18115234375	9.99755859375E-07
0.182952880859375	0.183685302734375	1.01470947265625E-06
0.185394287109375	0.18603515625	1.02935791015625E-06
0.187835693359375	0.18841552734375	1.0357666015625E-06
0.190277099609375	0.19085693359375	1.0516357421875E-06
0.192718505859375	0.193328857421875	1.07452392578125E-06
0.195159912109375	0.195709228515625	1.08978271484375E-06
0.197601318359375	0.1982421875	1.1053466796875E-06
0.200042724609375	0.200653076171875	1.114501953125E-06
0.202484130859375	0.20318603515625	1.13037109375E-06
0.204925537109375	0.20556640625	1.146240234375E-06
0.207366943359375	0.2080078125	1.16790771484375E-06
0.209808349609375	0.210479736328125	1.18316650390625E-06
0.212249755859375	0.21295166015625	1.19842529296875E-06
0.214691162109375	0.21533203125	1.2109375E-06
0.217132568359375	0.21771240234375	1.2255859375E-06
0.219573974609375	0.220245361328125	1.2432861328125E-06
0.222015380859375	0.222686767578125	1.26220703125E-06
0.224456787109375	0.225250244140625	1.28021240234375E-06
0.226898193359375	0.227630615234375	1.29638671875E-06
0.229339599609375	0.230010986328125	1.31591796875E-06
0.231781005859375	0.232452392578125	1.33392333984375E-06
0.234222412109375	0.234893798828125	1.35345458984375E-06
0.236663818359375	0.23736572265625	1.37603759765625E-06
0.239105224609375	0.23980712890625	1.39556884765625E-06
0.241546630859375	0.242279052734375	1.41693115234375E-06
0.243988037109375	0.244781494140625	1.4361572265625E-06
0.246429443359375	0.247161865234375	1.46209716796875E-06
0.248870849609375	0.249664306640625	1.48345947265625E-06
0.251312255859375	0.2520751953125	1.5045166015625E-06
0.253753662109375	0.2545166015625	1.53106689453125E-06
0.256195068359375	0.256927490234375	1.55426025390625E-06
0.258636474609375	0.259368896484375	1.5777587890625E-06
0.261077880859375	0.261810302734375	1.60369873046875E-06
0.263519287109375	0.264373779296875	1.63177490234375E-06
0.265960693359375	0.26666259765625	1.65618896484375E-06
0.268402099609375	0.269195556640625	1.6839599609375E-06
0.270843505859375	0.2716064453125	1.7120361328125E-06
0.273284912109375	0.274078369140625	1.73980712890625E-06
0.275726318359375	0.2764892578125	1.76971435546875E-06
0.278167724609375	0.278961181640625	1.8017578125E-06
0.280609130859375	0.28143310546875	1.8341064453125E-06
0.283050537109375	0.2838134765625	1.86614990234375E-06
0.285491943359375	0.286376953125	1.9000244140625E-06
0.287933349609375	0.28875732421875	1.9329833984375E-06
0.290374755859375	0.29119873046875	1.97509765625E-06
0.292816162109375	0.29364013671875	2.01019287109375E-06
0.295257568359375	0.296051025390625	2.04345703125E-06
0.297698974609375	0.29852294921875	2.081298828125E-06
0.300140380859375	0.301025390625	2.122802734375E-06
0.302581787109375	0.303436279296875	2.1551513671875E-06
0.305023193359375	0.305877685546875	2.19329833984375E-06
0.307464599609375	0.308380126953125	2.235107421875E-06
0.309906005859375	0.310821533203125	2.2821044921875E-06
0.312347412109375	0.313232421875	2.3284912109375E-06
0.314788818359375	0.315643310546875	2.371826171875E-06
0.317230224609375	0.318115234375	2.4176025390625E-06
0.319671630859375	0.32061767578125	2.4615478515625E-06
0.322113037109375	0.323089599609375	2.49908447265625E-06
0.324554443359375	0.32550048828125	2.5433349609375E-06
0.326995849609375	0.327911376953125	2.5946044921875E-06
0.329437255859375	0.330413818359375	2.64862060546875E-06
0.331878662109375	0.332855224609375	2.70294189453125E-06
0.334320068359375	0.33526611328125	2.7484130859375E-06
0.336761474609375	0.337738037109375	2.802734375E-06
0.339202880859375	0.34027099609375	2.85400390625E-06
0.341644287109375	0.34271240234375	2.906494140625E-06
0.344085693359375	0.345123291015625	2.947998046875E-06
0.346527099609375	0.347503662109375	3.0023193359375E-06
0.348968505859375	0.3499755859375	3.0572509765625E-06
0.351409912109375	0.352386474609375	3.1146240234375E-06
0.353851318359375	0.354949951171875	3.1707763671875E-06
0.356292724609375	0.3572998046875	3.23211669921875E-06
0.358734130859375	0.35986328125	3.29010009765625E-06
0.361175537109375	0.362274169921875	3.34716796875E-06
0.363616943359375	0.36468505859375	3.4100341796875E-06
0.366058349609375	0.3671875	3.470458984375E-06
0.368499755859375	0.36962890625	3.53179931640625E-06
0.370941162109375	0.3720703125	3.5888671875E-06
0.373382568359375	0.37451171875	3.643798828125E-06
0.375823974609375	0.376953125	3.7066650390625E-06
0.378265380859375	0.379486083984375	3.76495361328125E-06
0.380706787109375	0.381927490234375	3.826904296875E-06
0.383148193359375	0.38427734375	3.88763427734375E-06
0.385589599609375	0.38677978515625	3.95050048828125E-06
0.388031005859375	0.3892822265625	4.01580810546875E-06
0.390472412109375	0.39166259765625	4.0777587890625E-06
0.392913818359375	0.394134521484375	4.14215087890625E-06
0.395355224609375	0.3966064453125	4.205322265625E-06
0.397796630859375	0.399139404296875	4.2669677734375E-06
0.400238037109375	0.4014892578125	4.3304443359375E-06
0.402679443359375	0.40399169921875	4.38873291015625E-06
0.405120849609375	0.4063720703125	4.456787109375E-06
0.407562255859375	0.40887451171875	4.52423095703125E-06
0.410003662109375	0.411376953125	4.58984375E-06
0.412445068359375	0.41375732421875	4.6502685546875E-06
0.414886474609375	0.416168212890625	4.71710205078125E-06
0.417327880859375	0.418701171875	4.7845458984375E-06
0.419769287109375	0.421112060546875	4.8565673828125E-06
0.422210693359375	0.423583984375	4.915771484375E-06
0.424652099609375	0.426055908203125	4.984130859375E-06
0.427093505859375	0.428497314453125	5.052490234375E-06
0.429534912109375	0.43096923828125	5.1165771484375E-06
0.431976318359375	0.433349609375	5.18951416015625E-06
0.434417724609375	0.435882568359375	5.257568359375E-06
0.436859130859375	0.4383544921875	5.32745361328125E-06
0.439300537109375	0.44073486328125	5.40191650390625E-06
0.441741943359375	0.4432373046875	5.47149658203125E-06
0.444183349609375	0.445648193359375	5.5413818359375E-06
0.446624755859375	0.448150634765625	5.61431884765625E-06
0.449066162109375	0.450592041015625	5.6903076171875E-06
0.451507568359375	0.45306396484375	5.76263427734375E-06
0.453948974609375	0.4554443359375	5.833740234375E-06
0.456390380859375	0.457977294921875	5.91552734375E-06
0.458831787109375	0.460418701171875	5.9930419921875E-06
0.461273193359375	0.462799072265625	6.06964111328125E-06
0.463714599609375	0.46435546875	6.1492919921875E-06
0.466156005859375	0.466827392578125	6.2347412109375E-06
0.468597412109375	0.4693603515625	6.3201904296875E-06
0.471038818359375	0.471710205078125	6.4056396484375E-06
0.473480224609375	0.47418212890625	6.4910888671875E-06
0.475921630859375	0.47674560546875	6.585693359375E-06
0.478363037109375	0.47906494140625	6.67724609375E-06
0.480804443359375	0.48150634765625	6.7718505859375E-06
0.483245849609375	0.483978271484375	6.8634033203125E-06
0.485687255859375	0.486358642578125	6.9610595703125E-06
0.488128662109375	0.488861083984375	7.061767578125E-06
0.490570068359375	0.491302490234375	7.159423828125E-06
0.493011474609375	0.493743896484375	7.2601318359375E-06
0.495452880859375	0.496246337890625	7.3760986328125E-06
0.497894287109375	0.49871826171875	7.489013671875E-06
0.500335693359375	0.501068115234375	7.6019287109375E-06
0.502777099609375	0.50347900390625	7.7178955078125E-06
0.505218505859375	0.505950927734375	7.84912109375E-06
0.507659912109375	0.508331298828125	7.977294921875E-06
0.510101318359375	0.510772705078125	8.111572265625E-06
0.512542724609375	0.5133056640625	8.2611083984375E-06
0.514984130859375	0.51568603515625	8.4136962890625E-06
0.517425537109375	0.51812744140625	8.5662841796875E-06
0.519866943359375	0.52056884765625	8.734130859375E-06
0.522308349609375	0.5230712890625	8.9111328125E-06
0.524749755859375	0.5255126953125	9.09423828125E-06
0.527191162109375	0.527923583984375	9.28955078125E-06
0.529632568359375	0.5303955078125	9.490966796875E-06
0.532073974609375	0.532806396484375	9.716796875E-06
0.534515380859375	0.535369873046875	9.9639892578125E-06
0.536956787109375	0.537750244140625	1.02294921875E-05
0.539398193359375	0.540191650390625	1.0498046875E-05
0.541839599609375	0.542694091796875	1.08001708984375E-05
0.544281005859375	0.5450439453125	1.112060546875E-05
0.546722412109375	0.547515869140625	1.1474609375E-05
0.549163818359375	0.550048828125	1.18499755859375E-05
0.551605224609375	0.55242919921875	1.22650146484375E-05
0.554046630859375	0.55487060546875	1.27044677734375E-05
0.556488037109375	0.557342529296875	1.31866455078125E-05
0.558929443359375	0.559814453125	1.36993408203125E-05
0.561370849609375	0.562255859375	1.4263916015625E-05
0.563812255859375	0.564666748046875	1.48681640625E-05
0.566253662109375	0.567169189453125	1.55303955078125E-05
0.568695068359375	0.569580078125	1.62384033203125E-05
0.571136474609375	0.571990966796875	1.70196533203125E-05
0.573577880859375	0.574554443359375	1.78924560546875E-05
0.576019287109375	0.57696533203125	1.88201904296875E-05
0.578460693359375	0.57940673828125	1.98028564453125E-05
0.580902099609375	0.581878662109375	2.08953857421875E-05
0.583343505859375	0.58428955078125	2.20733642578125E-05
0.585784912109375	0.58673095703125	2.3358154296875E-05
0.588226318359375	0.589263916015625	2.47772216796875E-05
0.590667724609375	0.591705322265625	2.63153076171875E-05
0.593109130859375	0.59423828125	2.79754638671875E-05
0.595550537109375	0.596710205078125	2.97821044921875E-05
0.597991943359375	0.5992431640625	3.1744384765625E-05
0.600433349609375	0.601715087890625	3.389892578125E-05
0.602874755859375	0.60418701171875	3.6224365234375E-05
0.605316162109375	0.606658935546875	3.87908935546875E-05
0.607757568359375	0.60906982421875	4.1510009765625E-05
0.610198974609375	0.611602783203125	4.45220947265625E-05
0.612640380859375	0.61407470703125	4.786376953125E-05
0.615081787109375	0.616607666015625	5.14556884765625E-05
0.617523193359375	0.619049072265625	5.53131103515625E-05
0.619964599609375	0.62158203125	5.9552001953125E-05
0.622406005859375	0.624114990234375	6.41693115234375E-05
0.624847412109375	0.625701904296875	6.92138671875E-05
0.627288818359375	0.628082275390625	7.4676513671875E-05
0.629730224609375	0.63055419921875	8.062744140625E-05
0.632171630859375	0.632965087890625	8.7066650390625E-05
0.634613037109375	0.635467529296875	9.3994140625E-05
0.637054443359375	0.63800048828125	0.0001014404296875
0.639495849609375	0.640411376953125	0.000109466552734375
0.641937255859375	0.642822265625	0.000118011474609375
0.644378662109375	0.645233154296875	0.000127227783203125
0.646820068359375	0.647705078125	0.000136932373046875
0.649261474609375	0.650115966796875	0.0001473388671875
0.651702880859375	0.652618408203125	0.000158660888671875
0.654144287109375	0.655181884765625	0.00017047119140625
0.656585693359375	0.65753173828125	0.000182769775390625
0.659027099609375	0.660064697265625	0.0001959228515625
0.661468505859375	0.662506103515625	0.0002098388671875
0.663909912109375	0.6649169921875	0.0002244873046875
0.666351318359375	0.66741943359375	0.0002398681640625
0.668792724609375	0.669952392578125	0.000256134033203125
0.671234130859375	0.67236328125	0.000273101806640625
0.673675537109375	0.674835205078125	0.000290924072265625
0.676116943359375	0.677337646484375	0.000309417724609375
0.678558349609375	0.679718017578125	0.000328826904296875
0.680999755859375	0.682281494140625	0.000349029541015625
0.683441162109375	0.68475341796875	0.000370086669921875
0.685882568359375	0.687225341796875	0.000391693115234375
0.688323974609375	0.689666748046875	0.0004144287109375
0.690765380859375	0.69219970703125	0.0004384765625
0.693206787109375	0.694671630859375	0.0004630126953125
0.695648193359375	0.6971435546875	0.00048797607421875
0.698089599609375	0.699615478515625	0.000515045166015625
0.700531005859375	0.702056884765625	0.00054132080078125
0.702972412109375	0.70458984375	0.000569854736328125
0.705413818359375	0.707122802734375	0.00059906005859375
0.707855224609375	0.709564208984375	0.00062933349609375
0.710296630859375	0.71112060546875	0.00066070556640625
0.712738037109375	0.71337890625	0.00069305419921875
0.715179443359375	0.716033935546875	0.0007257080078125
0.717620849609375	0.718536376953125	0.0007598876953125
0.720062255859375	0.72088623046875	0.0007940673828125
0.722503662109375	0.723388671875	0.0008294677734375
0.724945068359375	0.725250244140625	0.0008660888671875
0.727386474609375	0.728271484375	0.00090301513671875
0.729827880859375	0.73077392578125	0.0009417724609375
0.732269287109375	0.733184814453125	0.0009808349609375
0.734710693359375	0.73553466796875	0.00102020263671875
0.737152099609375	0.73822021484375	0.001060791015625
0.739593505859375	0.740447998046875	0.001102294921875
0.742034912109375	0.742828369140625	0.00114471435546875
0.744476318359375	0.74542236328125	0.001187744140625
0.746917724609375	0.747833251953125	0.001231689453125
0.749359130859375	0.750732421875	0.0012762451171875
0.751800537109375	0.75286865234375	0.00132232666015625
0.754241943359375	0.75408935546875	0.00136688232421875
0.756683349609375	0.75714111328125	0.00141448974609375
0.759124755859375	0.75897216796875	0.00146209716796875
0.761566162109375	0.76202392578125	0.0015093994140625
0.764007568359375	0.7647705078125	0.00155731201171875
0.766448974609375	0.76751708984375	0.0016064453125
0.768890380859375	0.76995849609375	0.001654052734375
0.771331787109375	0.77178955078125	0.0017059326171875
0.773773193359375	0.7745361328125	0.00175567626953125
0.776214599609375	0.77667236328125	0.00180572509765625
0.778656005859375	0.7794189453125	0.0018572998046875
0.781097412109375	0.7818603515625	0.0019091796875
0.783538818359375	0.78460693359375	0.001961669921875
0.785980224609375	0.7867431640625	0.00201324462890625
0.788421630859375	0.78887939453125	0.00206634521484375
0.790863037109375	0.79132080078125	0.00212066650390625
0.793304443359375	0.79376220703125	0.00217315673828125
0.795745849609375	0.7965087890625	0.0022265625
0.798187255859375	0.7989501953125	0.0022808837890625
0.800628662109375	0.80230712890625	0.00233245849609375
0.798187255859375	0.7989501953125	0.00225921630859375
0.795745849609375	0.7958984375	0.00218536376953125
0.793304443359375	0.79345703125	0.0021136474609375
0.790863037109375	0.79132080078125	0.00204498291015625
0.788421630859375	0.7891845703125	0.0019781494140625
0.785980224609375	0.787353515625	0.00191253662109375
0.783538818359375	0.78399658203125	0.00184906005859375
0.781097412109375	0.78155517578125	0.00178741455078125
0.778656005859375	0.77880859375	0.00172760009765625
0.776214599609375	0.7769775390625	0.00166900634765625
0.773773193359375	0.7745361328125	0.0016131591796875
0.771331787109375	0.7720947265625	0.001558837890625
0.768890380859375	0.7696533203125	0.001505126953125
0.766448974609375	0.76690673828125	0.00145263671875
0.764007568359375	0.7647705078125	0.00140228271484375
0.761566162109375	0.76263427734375	0.001353759765625
0.759124755859375	0.760498046875	0.00130615234375
0.756683349609375	0.75775146484375	0.00126007080078125
0.754241943359375	0.75469970703125	0.001214599609375
0.751800537109375	0.7525634765625	0.00117095947265625
0.749359130859375	0.74981689453125	0.0011285400390625
0.746917724609375	0.74786376953125	0.0010870361328125
0.744476318359375	0.745452880859375	0.00104644775390625
0.742034912109375	0.742919921875	0.00100738525390625
0.739593505859375	0.740509033203125	0.00096954345703125
0.737152099609375	0.737945556640625	0.0009326171875
0.734710693359375	0.735565185546875	0.0008966064453125
0.732269287109375	0.733184814453125	0.00086273193359375
0.729827880859375	0.730743408203125	0.000828857421875
0.727386474609375	0.728271484375	0.0007958984375
0.724945068359375	0.725830078125	0.00076446533203125
0.722503662109375	0.723358154296875	0.0007342529296875
0.720062255859375	0.720916748046875	0.00070465087890625
0.717620849609375	0.718414306640625	0.00067596435546875
0.715179443359375	0.71600341796875	0.00064788818359375
0.712738037109375	0.713531494140625	0.00062103271484375
0.710296630859375	0.71112060546875	0.0005950927734375
0.707855224609375	0.7086181640625	0.00056976318359375
0.705413818359375	0.706207275390625	0.00054534912109375
0.702972412109375	0.703765869140625	0.00052154541015625
0.700531005859375	0.701385498046875	0.0004986572265625
0.698089599609375	0.698822021484375	0.00047662353515625
0.695648193359375	0.696441650390625	0.000455322265625
0.693206787109375	0.694000244140625	0.00043505859375
0.690765380859375	0.691619873046875	0.000415252685546875
0.688323974609375	0.689727783203125	0.00039569091796875
0.685882568359375	0.6871337890625	0.00037725830078125
0.683441162109375	0.68475341796875	0.0003597412109375
0.680999755859375	0.682281494140625	0.000342559814453125
0.678558349609375	0.6798095703125	0.0003260498046875
0.676116943359375	0.67730712890625	0.00031011962890625
0.673675537109375	0.67486572265625	0.000294830322265625
0.671234130859375	0.67242431640625	0.00028009033203125
0.668792724609375	0.669891357421875	0.000265899658203125
0.666351318359375	0.66741943359375	0.00025213623046875
0.663909912109375	0.66497802734375	0.000239013671875
0.661468505859375	0.66253662109375	0.000226348876953125
0.659027099609375	0.660003662109375	0.0002142333984375
0.656585693359375	0.65753173828125	0.00020257568359375
0.654144287109375	0.6551513671875	0.000191497802734375
0.651702880859375	0.6527099609375	0.0001807861328125
0.649261474609375	0.65020751953125	0.0001702880859375
0.646820068359375	0.647705078125	0.000160400390625
0.644378662109375	0.64532470703125	0.000150970458984375
0.641937255859375	0.642822265625	0.000141876220703125
0.639495849609375	0.640472412109375	0.0001331787109375
0.637054443359375	0.63800048828125	0.0001248779296875
0.634613037109375	0.63555908203125	0.000116943359375
0.632171630859375	0.63311767578125	0.00010931396484375
0.629730224609375	0.630584716796875	0.000102081298828125
0.627288818359375	0.628082275390625	9.5184326171875E-05
0.624847412109375	0.6256103515625	8.8623046875E-05
0.622406005859375	0.623199462890625	8.2427978515625E-05
0.619964599609375	0.6207275390625	7.65380859375E-05
0.617523193359375	0.6182861328125	7.1014404296875E-05
0.615081787109375	0.6158447265625	6.5826416015625E-05
0.612640380859375	0.61346435546875	6.09130859375E-05
0.610198974609375	0.610870361328125	5.6182861328125E-05
0.607757568359375	0.6083984375	5.1849365234375E-05
0.605316162109375	0.606048583984375	4.77935791015625E-05
0.602874755859375	0.6036376953125	4.39666748046875E-05
0.600433349609375	0.601104736328125	4.03656005859375E-05
0.597991943359375	0.598663330078125	3.70269775390625E-05
0.595550537109375	0.5963134765625	3.3941650390625E-05
0.593109130859375	0.594390869140625	3.1103515625E-05
0.590667724609375	0.591827392578125	2.8448486328125E-05
0.588226318359375	0.58929443359375	2.5982666015625E-05
0.585784912109375	0.5867919921875	2.3712158203125E-05
0.583343505859375	0.584320068359375	2.164306640625E-05
0.580902099609375	0.5819091796875	1.97357177734375E-05
0.578460693359375	0.579345703125	1.79962158203125E-05
0.576019287109375	0.576873779296875	1.6424560546875E-05
0.573577880859375	0.574493408203125	1.4971923828125E-05
0.571136474609375	0.57196044921875	1.363525390625E-05
0.568695068359375	0.569488525390625	1.2432861328125E-05
0.566253662109375	0.5670166015625	1.1358642578125E-05
0.563812255859375	0.564605712890625	1.03546142578125E-05
0.561370849609375	0.562164306640625	9.43603515625E-06
0.558929443359375	0.559661865234375	8.612060546875E-06
0.556488037109375	0.5572509765625	7.8521728515625E-06
0.554046630859375	0.554840087890625	7.1746826171875E-06
0.551605224609375	0.552337646484375	6.5460205078125E-06
0.549163818359375	0.549896240234375	5.9814453125E-06
0.546722412109375	0.54742431640625	5.462646484375E-06
0.544281005859375	0.544952392578125	4.998779296875E-06
0.541839599609375	0.542510986328125	4.5501708984375E-06
0.539398193359375	0.540069580078125	4.156494140625E-06
0.536956787109375	0.5377197265625	3.80767822265625E-06
0.534515380859375	0.53521728515625	3.48052978515625E-06
0.532073974609375	0.533233642578125	3.1646728515625E-06
0.529632568359375	0.530670166015625	2.90283203125E-06
0.527191162109375	0.5281982421875	2.66082763671875E-06
0.524749755859375	0.525787353515625	2.42706298828125E-06
0.522308349609375	0.523193359375	2.222900390625E-06
0.519866943359375	0.520782470703125	2.03125E-06
0.517425537109375	0.518341064453125	1.85028076171875E-06
0.514984130859375	0.515777587890625	1.69097900390625E-06
0.512542724609375	0.513397216796875	1.54022216796875E-06
0.510101318359375	0.51092529296875	1.4013671875E-06
0.507659912109375	0.50836181640625	1.2774658203125E-06
0.505218505859375	0.505950927734375	1.15966796875E-06
0.502777099609375	0.503448486328125	1.05255126953125E-06
0.500335693359375	0.50103759765625	9.4757080078125E-07
0.497894287109375	0.498748779296875	8.63037109375E-07
0.495452880859375	0.496185302734375	7.733154296875E-07
0.493011474609375	0.49365234375	6.884765625E-07
0.490570068359375	0.4913330078125	6.1492919921875E-07
0.488128662109375	0.488800048828125	5.45654296875E-07
0.485687255859375	0.48638916015625	4.74853515625E-07
0.483245849609375	0.483856201171875	4.1534423828125E-07
0.480804443359375	0.48150634765625	3.5308837890625E-07
0.478363037109375	0.479095458984375	3.0242919921875E-07
0.475921630859375	0.476654052734375	2.410888671875E-07
0.473480224609375	0.474456787109375	1.99310302734375E-07
0.471038818359375	0.4718017578125	1.522216796875E-07
0.468597412109375	0.46954345703125	1.0791015625E-07
0.466156005859375	0.4669189453125	6.884765625E-08
0.463714599609375	0.464447021484375	2.447509765625E-08
0.461273193359375	0.461761474609375	-1.6204833984375E-08
0.458831787109375	0.4593505859375	-5.1116943359375E-08
0.456390380859375	0.45672607421875	-9.3414306640625E-08
0.453948974609375	0.453765869140625	-1.38153076171875E-07
0.451507568359375	0.45196533203125	-1.7095947265625E-07
0.449066162109375	0.449371337890625	-2.0379638671875E-07
0.446624755859375	0.446807861328125	-2.45941162109375E-07
0.444183349609375	0.44439697265625	-2.791748046875E-07
0.441741943359375	0.4415283203125	-3.13873291015625E-07
0.439300537109375	0.439483642578125	-3.392333984375E-07
0.436859130859375	0.436767578125	-3.73016357421875E-07
0.434417724609375	0.434295654296875	-4.04541015625E-07
0.431976318359375	0.432098388671875	-4.3109130859375E-07
0.429534912109375	0.429595947265625	-4.53094482421875E-07
0.427093505859375	0.427032470703125	-4.78790283203125E-07
0.424652099609375	0.42431640625	-5.059814453125E-07
0.422210693359375	0.421966552734375	-5.419921875E-07
0.419769287109375	0.419677734375	-5.6597900390625E-07
0.417327880859375	0.416961669921875	-5.89691162109375E-07
0.414886474609375	0.414520263671875	-6.1859130859375E-07
0.412445068359375	0.412872314453125	-6.4483642578125E-07
0.410003662109375	0.410491943359375	-6.689453125E-07
0.407562255859375	0.408050537109375	-6.9183349609375E-07
0.405120849609375	0.405670166015625	-7.1563720703125E-07
0.402679443359375	0.4031982421875	-7.3822021484375E-07
0.400238037109375	0.400634765625	-7.550048828125E-07
0.397796630859375	0.398345947265625	-7.855224609375E-07
0.395355224609375	0.39581298828125	-8.074951171875E-07
0.392913818359375	0.393218994140625	-8.2794189453125E-07
0.390472412109375	0.39080810546875	-8.5235595703125E-07
0.388031005859375	0.388397216796875	-8.7127685546875E-07
0.385589599609375	0.386016845703125	-8.9111328125E-07
0.383148193359375	0.383514404296875	-9.0911865234375E-07
0.380706787109375	0.381195068359375	-9.27734375E-07
0.378265380859375	0.3787841796875	-9.4970703125E-07
0.375823974609375	0.376190185546875	-9.6771240234375E-07
0.373382568359375	0.373687744140625	-9.832763671875E-07
0.370941162109375	0.371368408203125	-9.99755859375E-07
0.368499755859375	0.36883544921875	-1.01409912109375E-06
0.366058349609375	0.366485595703125	-1.03424072265625E-06
0.363616943359375	0.363983154296875	-1.0418701171875E-06
0.361175537109375	0.361480712890625	-1.05377197265625E-06
0.358734130859375	0.359222412109375	-1.07421875E-06
0.356292724609375	0.356689453125	-1.08245849609375E-06
0.353851318359375	0.354156494140625	-1.092529296875E-06
0.351409912109375	0.351715087890625	-1.10321044921875E-06
0.348968505859375	0.34930419921875	-1.1212158203125E-06
0.346527099609375	0.34686279296875	-1.1248779296875E-06
0.344085693359375	0.344390869140625	-1.13250732421875E-06
0.341644287109375	0.34197998046875	-1.1395263671875E-06
0.339202880859375	0.339508056640625	-1.1505126953125E-06
0.336761474609375	0.337066650390625	-1.15936279296875E-06
0.334320068359375	0.3345947265625	-1.1614990234375E-06
0.331878662109375	0.33221435546875	-1.163330078125E-06
0.329437255859375	0.32977294921875	-1.1712646484375E-06
0.326995849609375	0.327301025390625	-1.17462158203125E-06
0.324554443359375	0.324920654296875	-1.1773681640625E-06
0.322113037109375	0.32244873046875	-1.1785888671875E-06
0.319671630859375	0.3199462890625	-1.18011474609375E-06
0.317230224609375	0.317535400390625	-1.18255615234375E-06
0.314788818359375	0.315155029296875	-1.18560791015625E-06
0.312347412109375	0.312744140625	-1.18988037109375E-06
0.309906005859375	0.310211181640625	-1.190185546875E-06
0.307464599609375	0.307769775390625	-1.19293212890625E-06
0.305023193359375	0.305328369140625	-1.1907958984375E-06
0.302581787109375	0.302978515625	-1.18896484375E-06
0.300140380859375	0.300537109375	-1.190185546875E-06
0.297698974609375	0.29803466796875	-1.1907958984375E-06
0.295257568359375	0.295562744140625	-1.1932373046875E-06
0.292816162109375	0.293182373046875	-1.19293212890625E-06
0.290374755859375	0.2906494140625	-1.1962890625E-06
0.287933349609375	0.28839111328125	-1.19873046875E-06
0.285491943359375	0.285797119140625	-1.1956787109375E-06
0.283050537109375	0.283477783203125	-1.19781494140625E-06
0.280609130859375	0.281097412109375	-1.20513916015625E-06
0.278167724609375	0.27850341796875	-1.20758056640625E-06
0.275726318359375	0.276031494140625	-1.20819091796875E-06
0.273284912109375	0.273468017578125	-1.20941162109375E-06
0.270843505859375	0.271148681640625	-1.2176513671875E-06
0.268402099609375	0.26873779296875	-1.21734619140625E-06
0.265960693359375	0.2662353515625	-1.20880126953125E-06
0.263519287109375	0.26385498046875	-1.212158203125E-06
0.261077880859375	0.26141357421875	-1.214599609375E-06
0.258636474609375	0.2589111328125	-1.22039794921875E-06
0.256195068359375	0.256439208984375	-1.2261962890625E-06
0.253753662109375	0.254058837890625	-1.219482421875E-06
0.251312255859375	0.2515869140625	-1.22161865234375E-06
0.248870849609375	0.249176025390625	-1.22833251953125E-06
0.246429443359375	0.246734619140625	-1.23016357421875E-06
0.243988037109375	0.24432373046875	-1.2322998046875E-06
0.241546630859375	0.24188232421875	-1.2371826171875E-06
0.239105224609375	0.23944091796875	-1.23931884765625E-06
0.236663818359375	0.23687744140625	-1.2408447265625E-06
0.234222412109375	0.2344970703125	-1.24298095703125E-06
0.231781005859375	0.231964111328125	-1.24725341796875E-06
0.229339599609375	0.229583740234375	-1.24969482421875E-06
0.226898193359375	0.227203369140625	-1.25274658203125E-06
0.224456787109375	0.2247314453125	-1.25701904296875E-06
0.222015380859375	0.22235107421875	-1.26220703125E-06
0.219573974609375	0.219818115234375	-1.26434326171875E-06
0.217132568359375	0.21734619140625	-1.2640380859375E-06
0.214691162109375	0.21502685546875	-1.2664794921875E-06
0.212249755859375	0.21258544921875	-1.268310546875E-06
0.209808349609375	0.210052490234375	-1.268310546875E-06
0.207366943359375	0.207611083984375	-1.27166748046875E-06
0.204925537109375	0.2052001953125	-1.27685546875E-06
0.202484130859375	0.202789306640625	-1.28204345703125E-06
0.200042724609375	0.200347900390625	-1.282958984375E-06
0.197601318359375	0.19781494140625	-1.28326416015625E-06
0.195159912109375	0.19537353515625	-1.28631591796875E-06
0.192718505859375	0.192840576171875	-1.29150390625E-06
0.190277099609375	0.190521240234375	-1.29638671875E-06
0.187835693359375	0.18798828125	-1.29638671875E-06
0.185394287109375	0.1856689453125	-1.2969970703125E-06
0.182952880859375	0.1832275390625	-1.30126953125E-06
0.180511474609375	0.180755615234375	-1.30523681640625E-06
0.178070068359375	0.178375244140625	-1.31103515625E-06
0.175628662109375	0.1759033203125	-1.3128662109375E-06
0.173187255859375	0.173431396484375	-1.31866455078125E-06
0.170745849609375	0.17095947265625	-1.3177490234375E-06
0.168304443359375	0.16851806640625	-1.32720947265625E-06
0.165863037109375	0.166259765625	-1.3250732421875E-06
0.163421630859375	0.163726806640625	-1.3348388671875E-06
0.160980224609375	0.1612548828125	-1.33270263671875E-06
0.158538818359375	0.15875244140625	-1.33636474609375E-06
0.156097412109375	0.15631103515625	-1.341552734375E-06
0.153656005859375	0.1539306640625	-1.3470458984375E-06
0.151214599609375	0.151458740234375	-1.34796142578125E-06
0.148773193359375	0.149017333984375	-1.3519287109375E-06
0.146331787109375	0.146575927734375	-1.34857177734375E-06
0.143890380859375	0.1441650390625	-1.35467529296875E-06
0.141448974609375	0.141693115234375	-1.36016845703125E-06
0.139007568359375	0.139190673828125	-1.3629150390625E-06
0.136566162109375	0.13671875	-1.36077880859375E-06
0.134124755859375	0.134368896484375	-1.36260986328125E-06
0.131683349609375	0.131927490234375	-1.36962890625E-06
0.129241943359375	0.129486083984375	-1.3726806640625E-06
0.126800537109375	0.1270751953125	-1.37359619140625E-06
0.124359130859375	0.124603271484375	-1.37664794921875E-06
0.121917724609375	0.122222900390625	-1.37969970703125E-06
0.119476318359375	0.119659423828125	-1.3836669921875E-06
0.117034912109375	0.11724853515625	-1.38641357421875E-06
0.114593505859375	0.114776611328125	-1.3922119140625E-06
0.112152099609375	0.112335205078125	-1.39984130859375E-06
0.109710693359375	0.110015869140625	-1.4019775390625E-06
0.107269287109375	0.107513427734375	-1.405029296875E-06
0.104827880859375	0.10504150390625	-1.4080810546875E-06
0.102386474609375	0.102569580078125	-1.41265869140625E-06
0.099945068359375	0.10009765625	-1.41815185546875E-06
0.097503662109375	0.09771728515625	-1.42059326171875E-06
0.095062255859375	0.09521484375	-1.42364501953125E-06
0.092620849609375	0.09283447265625	-1.42578125E-06
0.090179443359375	0.09039306640625	-1.429443359375E-06
0.087738037109375	0.08795166015625	-1.43463134765625E-06
0.090179443359375	0.090362548828125	-1.27349853515625E-06
0.092620849609375	0.09283447265625	-1.148681640625E-06
0.095062255859375	0.095306396484375	-1.053466796875E-06
0.097503662109375	0.097808837890625	-9.5550537109375E-07
0.099945068359375	0.10009765625	-8.7982177734375E-07
0.102386474609375	0.10260009765625	-8.0169677734375E-07
0.104827880859375	0.10516357421875	-7.3333740234375E-07
0.107269287109375	0.10760498046875	-6.658935546875E-07
0.109710693359375	0.11004638671875	-6.0821533203125E-07
0.112152099609375	0.112457275390625	-5.474853515625E-07
0.114593505859375	0.114898681640625	-4.91943359375E-07
0.117034912109375	0.11737060546875	-4.35791015625E-07
0.119476318359375	0.11981201171875	-3.82080078125E-07
0.121917724609375	0.12225341796875	-3.30810546875E-07
0.124359130859375	0.124725341796875	-2.825927734375E-07
0.126800537109375	0.126800537109375	-2.41729736328125E-07
0.129241943359375	0.129364013671875	-2.0184326171875E-07
0.131683349609375	0.131988525390625	-1.5789794921875E-07
0.134124755859375	0.134521484375	-1.18988037109375E-07
0.136566162109375	0.136810302734375	-8.0108642578125E-08
0.139007568359375	0.139495849609375	-4.5745849609375E-08
0.141448974609375	0.14190673828125	-6.8359375E-09
0.143890380859375	0.144561767578125	3.6102294921875E-08
0.146331787109375	0.14703369140625	6.683349609375E-08
0.148773193359375	0.1495361328125	9.99755859375E-08
0.151214599609375	0.15185546875	1.32537841796875E-07
0.153656005859375	0.154266357421875	1.6259765625E-07
0.156097412109375	0.156951904296875	1.9232177734375E-07
0.158538818359375	0.15966796875	2.23114013671875E-07
0.160980224609375	0.1619873046875	2.51708984375E-07
0.163421630859375	0.164459228515625	2.81951904296875E-07
0.165863037109375	0.166778564453125	3.1121826171875E-07
0.168304443359375	0.169219970703125	3.37066650390625E-07
0.170745849609375	0.171844482421875	3.63037109375E-07
0.173187255859375	0.173980712890625	3.8861083984375E-07
0.175628662109375	0.176727294921875	4.1400146484375E-07
0.178070068359375	0.179229736328125	4.4091796875E-07
0.180511474609375	0.181640625	4.6392822265625E-07
0.182952880859375	0.1842041015625	4.8980712890625E-07
0.185394287109375	0.186431884765625	5.1495361328125E-07
0.187835693359375	0.189117431640625	5.3619384765625E-07
0.190277099609375	0.1917724609375	5.55511474609375E-07
0.192718505859375	0.194244384765625	5.81207275390625E-07
0.195159912109375	0.196502685546875	6.0601806640625E-07
0.197601318359375	0.198150634765625	6.2591552734375E-07
0.200042724609375	0.200592041015625	6.45751953125E-07
0.202484130859375	0.203094482421875	6.6497802734375E-07
0.204925537109375	0.20556640625	6.8511962890625E-07
0.207366943359375	0.2080078125	7.0770263671875E-07
0.209808349609375	0.21038818359375	7.2509765625E-07
0.212249755859375	0.212890625	7.45849609375E-07
0.214691162109375	0.215179443359375	7.6446533203125E-07
0.217132568359375	0.21771240234375	7.867431640625E-07
0.219573974609375	0.2200927734375	8.001708984375E-07
0.222015380859375	0.22271728515625	8.221435546875E-07
0.224456787109375	0.225006103515625	8.3984375E-07
0.226898193359375	0.22747802734375	8.5968017578125E-07
0.229339599609375	0.2298583984375	8.8134765625E-07
0.231781005859375	0.232452392578125	9.0240478515625E-07
0.234222412109375	0.23486328125	9.210205078125E-07
0.236663818359375	0.2373046875	9.3353271484375E-07
0.239105224609375	0.239776611328125	9.5428466796875E-07
0.241546630859375	0.24224853515625	9.7625732421875E-07
0.243988037109375	0.24462890625	9.9395751953125E-07
0.246429443359375	0.247100830078125	1.01104736328125E-06
0.248870849609375	0.24957275390625	1.02874755859375E-06
0.251312255859375	0.251983642578125	1.0504150390625E-06
0.253753662109375	0.254302978515625	1.06719970703125E-06
0.256195068359375	0.256744384765625	1.08367919921875E-06
0.258636474609375	0.259246826171875	1.103515625E-06
0.261077880859375	0.26177978515625	1.11968994140625E-06
0.263519287109375	0.264312744140625	1.13677978515625E-06
0.265960693359375	0.266632080078125	1.15234375E-06
0.268402099609375	0.26904296875	1.171875E-06
0.270843505859375	0.271484375	1.190185546875E-06
0.273284912109375	0.273956298828125	1.21368408203125E-06
0.275726318359375	0.27642822265625	1.23138427734375E-06
0.278167724609375	0.278839111328125	1.25274658203125E-06
0.280609130859375	0.28131103515625	1.26953125E-06
0.283050537109375	0.28375244140625	1.28662109375E-06
0.285491943359375	0.286224365234375	1.3055419921875E-06
0.287933349609375	0.28875732421875	1.3238525390625E-06
0.290374755859375	0.29107666015625	1.34490966796875E-06
0.292816162109375	0.293548583984375	1.365966796875E-06
0.295257568359375	0.295989990234375	1.38671875E-06
0.297698974609375	0.298309326171875	1.407470703125E-06
0.300140380859375	0.30096435546875	1.42578125E-06
0.302581787109375	0.3033447265625	1.4501953125E-06
0.305023193359375	0.30572509765625	1.47064208984375E-06
0.307464599609375	0.308197021484375	1.49200439453125E-06
0.309906005859375	0.310546875	1.514892578125E-06
0.312347412109375	0.3131103515625	1.5325927734375E-06
0.314788818359375	0.315460205078125	1.55975341796875E-06
0.317230224609375	0.318023681640625	1.580810546875E-06
0.319671630859375	0.32049560546875	1.59423828125E-06
0.322113037109375	0.3228759765625	1.6156005859375E-06
0.324554443359375	0.32537841796875	1.6375732421875E-06
0.326995849609375	0.32781982421875	1.6619873046875E-06
0.329437255859375	0.33026123046875	1.68426513671875E-06
0.331878662109375	0.33270263671875	1.7071533203125E-06
0.334320068359375	0.3350830078125	1.72760009765625E-06
0.336761474609375	0.33758544921875	1.7462158203125E-06
0.339202880859375	0.3399658203125	1.77093505859375E-06
0.341644287109375	0.342437744140625	1.7938232421875E-06
0.344085693359375	0.34478759765625	1.817626953125E-06
0.346527099609375	0.347320556640625	1.84051513671875E-06
0.348968505859375	0.349700927734375	1.86798095703125E-06
0.351409912109375	0.352264404296875	1.89453125E-06
0.353851318359375	0.354644775390625	1.920166015625E-06
0.356292724609375	0.357147216796875	1.9482421875E-06
0.358734130859375	0.35955810546875	1.97296142578125E-06
0.361175537109375	0.362060546875	2.00103759765625E-06
0.363616943359375	0.364501953125	2.02911376953125E-06
0.366058349609375	0.366851806640625	2.06207275390625E-06
0.368499755859375	0.369384765625	2.08709716796875E-06
0.370941162109375	0.371856689453125	2.12066650390625E-06
0.373382568359375	0.374237060546875	2.14996337890625E-06
0.375823974609375	0.376708984375	2.17529296875E-06
0.378265380859375	0.37921142578125	2.21405029296875E-06
0.380706787109375	0.381683349609375	2.24365234375E-06
0.383148193359375	0.384033203125	2.276611328125E-06
0.385589599609375	0.38641357421875	2.30743408203125E-06
0.388031005859375	0.388916015625	2.33978271484375E-06
0.390472412109375	0.391357421875	2.37060546875E-06
0.392913818359375	0.393829345703125	2.403564453125E-06
0.395355224609375	0.3963623046875	2.43133544921875E-06
0.397796630859375	0.39874267578125	2.46795654296875E-06
0.400238037109375	0.401214599609375	2.50213623046875E-06
0.402679443359375	0.403717041015625	2.53326416015625E-06
0.405120849609375	0.4061279296875	2.57049560546875E-06
0.407562255859375	0.408477783203125	2.603759765625E-06
0.410003662109375	0.411041259765625	2.6416015625E-06
0.412445068359375	0.413360595703125	2.67608642578125E-06
0.414886474609375	0.4158935546875	2.71240234375E-06
0.417327880859375	0.418365478515625	2.752685546875E-06
0.419769287109375	0.4208984375	2.79449462890625E-06
0.422210693359375	0.4232177734375	2.8314208984375E-06
0.424652099609375	0.425689697265625	2.8717041015625E-06
0.427093505859375	0.428131103515625	2.91900634765625E-06
0.429534912109375	0.430633544921875	2.96112060546875E-06
0.431976318359375	0.43304443359375	3.00384521484375E-06
0.434417724609375	0.435455322265625	3.05145263671875E-06
0.436859130859375	0.438018798828125	3.09783935546875E-06
0.439300537109375	0.44049072265625	3.14849853515625E-06
0.441741943359375	0.44287109375	3.18878173828125E-06
0.444183349609375	0.4453125	3.245849609375E-06
0.446624755859375	0.44775390625	3.29071044921875E-06
0.449066162109375	0.45013427734375	3.3331298828125E-06
0.451507568359375	0.45263671875	3.38348388671875E-06
0.453948974609375	0.455108642578125	3.436279296875E-06
0.456390380859375	0.45745849609375	3.4991455078125E-06
0.458831787109375	0.4599609375	3.541259765625E-06
0.461273193359375	0.462493896484375	3.59375E-06
0.463714599609375	0.464813232421875	3.64715576171875E-06
0.466156005859375	0.4674072265625	3.70147705078125E-06
0.468597412109375	0.469818115234375	3.7677001953125E-06
0.471038818359375	0.472198486328125	3.824462890625E-06
0.473480224609375	0.474700927734375	3.87969970703125E-06
0.475921630859375	0.477142333984375	3.94683837890625E-06
0.478363037109375	0.47967529296875	4.0087890625E-06
0.480804443359375	0.48211669921875	4.080810546875E-06
0.483245849609375	0.484588623046875	4.13848876953125E-06
0.485687255859375	0.487091064453125	4.20806884765625E-06
0.488128662109375	0.489410400390625	4.2852783203125E-06
0.490570068359375	0.49188232421875	4.34783935546875E-06
0.493011474609375	0.494354248046875	4.42901611328125E-06
0.495452880859375	0.496795654296875	4.50439453125E-06
0.497894287109375	0.499298095703125	4.58953857421875E-06
0.500335693359375	0.501739501953125	4.66522216796875E-06
0.502777099609375	0.504150390625	4.7509765625E-06
0.505218505859375	0.506561279296875	4.85321044921875E-06
0.507659912109375	0.50909423828125	4.93988037109375E-06
0.510101318359375	0.511566162109375	5.0299072265625E-06
0.512542724609375	0.51397705078125	5.13397216796875E-06
0.514984130859375	0.516448974609375	5.23193359375E-06
0.517425537109375	0.518829345703125	5.33843994140625E-06
0.519866943359375	0.521331787109375	5.44403076171875E-06
0.522308349609375	0.5238037109375	5.562744140625E-06
0.524749755859375	0.526336669921875	5.68511962890625E-06
0.527191162109375	0.528778076171875	5.81634521484375E-06
0.529632568359375	0.531219482421875	5.95062255859375E-06
0.532073974609375	0.533599853515625	6.10198974609375E-06
0.534515380859375	0.535247802734375	6.2713623046875E-06
0.536956787109375	0.537689208984375	6.43310546875E-06
0.539398193359375	0.5400390625	6.597900390625E-06
0.541839599609375	0.54248046875	6.793212890625E-06
0.544281005859375	0.544921875	7.0037841796875E-06
0.546722412109375	0.54742431640625	7.2235107421875E-06
0.549163818359375	0.549896240234375	7.45849609375E-06
0.551605224609375	0.55230712890625	7.72705078125E-06
0.554046630859375	0.554840087890625	7.9986572265625E-06
0.556488037109375	0.55718994140625	8.306884765625E-06
0.558929443359375	0.559661865234375	8.636474609375E-06
0.561370849609375	0.5621337890625	8.9874267578125E-06
0.563812255859375	0.564666748046875	9.3719482421875E-06
0.566253662109375	0.567047119140625	9.7869873046875E-06
0.568695068359375	0.56951904296875	1.02325439453125E-05
0.571136474609375	0.57196044921875	1.07269287109375E-05
0.573577880859375	0.574432373046875	1.1273193359375E-05
0.576019287109375	0.576904296875	1.18499755859375E-05
0.578460693359375	0.5792236328125	1.24725341796875E-05
0.580902099609375	0.581756591796875	1.31500244140625E-05
0.583343505859375	0.58416748046875	1.38946533203125E-05
0.585784912109375	0.586639404296875	1.46881103515625E-05
0.588226318359375	0.589111328125	1.556396484375E-05
0.590667724609375	0.591583251953125	1.65130615234375E-05
0.593109130859375	0.59405517578125	1.75140380859375E-05
0.595550537109375	0.596466064453125	1.86126708984375E-05
0.597991943359375	0.598876953125	1.97906494140625E-05
0.600433349609375	0.6014404296875	2.10723876953125E-05
0.602874755859375	0.6038818359375	2.24456787109375E-05
0.605316162109375	0.60638427734375	2.39501953125E-05
0.607757568359375	0.608795166015625	2.552490234375E-05
0.610198974609375	0.611297607421875	2.7276611328125E-05
0.612640380859375	0.613861083984375	2.918701171875E-05
0.615081787109375	0.61627197265625	3.12408447265625E-05
0.617523193359375	0.618682861328125	3.33953857421875E-05
0.619964599609375	0.6212158203125	3.5784912109375E-05
0.622406005859375	0.6236572265625	3.83636474609375E-05
0.624847412109375	0.626190185546875	4.1131591796875E-05
0.627288818359375	0.628662109375	4.41375732421875E-05
0.629730224609375	0.631256103515625	4.73846435546875E-05
0.632171630859375	0.633697509765625	5.0848388671875E-05
0.634613037109375	0.636199951171875	5.4559326171875E-05
0.637054443359375	0.638763427734375	5.85113525390625E-05
0.639495849609375	0.6412353515625	6.27960205078125E-05
0.641937255859375	0.642730712890625	6.7352294921875E-05
0.644378662109375	0.6451416015625	7.2174072265625E-05
0.646820068359375	0.647613525390625	7.7239990234375E-05
0.649261474609375	0.649993896484375	8.2672119140625E-05
0.651702880859375	0.652557373046875	8.8531494140625E-05
0.654144287109375	0.65496826171875	9.466552734375E-05
0.656585693359375	0.657470703125	0.00010101318359375
0.659027099609375	0.65985107421875	0.00010784912109375
0.661468505859375	0.66229248046875	0.000114990234375
0.663909912109375	0.66485595703125	0.000122528076171875
0.666351318359375	0.667266845703125	0.00013043212890625
0.668792724609375	0.66973876953125	0.0001387939453125
0.671234130859375	0.67218017578125	0.000147552490234375
0.673675537109375	0.6746826171875	0.000156646728515625
0.676116943359375	0.677093505859375	0.000166229248046875
0.678558349609375	0.679595947265625	0.00017620849609375
0.680999755859375	0.681976318359375	0.0001866455078125
0.683441162109375	0.684478759765625	0.000197540283203125
0.685882568359375	0.686920166015625	0.00020880126953125
0.688323974609375	0.689361572265625	0.000220703125
0.690765380859375	0.69189453125	0.000233245849609375
0.693206787109375	0.694305419921875	0.00024609375
0.695648193359375	0.69677734375	0.0002593994140625
0.698089599609375	0.699188232421875	0.000273345947265625
0.700531005859375	0.701629638671875	0.000287933349609375
0.702972412109375	0.70416259765625	0.000303009033203125
0.705413818359375	0.706695556640625	0.000318695068359375
0.707855224609375	0.709136962890625	0.00033502197265625
0.710296630859375	0.71160888671875	0.000351837158203125
0.712738037109375	0.714111328125	0.00036920166015625
0.715179443359375	0.716522216796875	0.00038720703125
0.717620849609375	0.71905517578125	0.000405670166015625
0.720062255859375	0.721435546875	0.0004249267578125
0.722503662109375	0.7239990234375	0.000444580078125
0.724945068359375	0.726470947265625	0.00046453857421875
0.727386474609375	0.7288818359375	0.0004854736328125
0.729827880859375	0.73138427734375	0.00050726318359375
0.732269287109375	0.733917236328125	0.000529388427734375
0.734710693359375	0.736358642578125	0.000551666259765625
0.737152099609375	0.73883056640625	0.000574798583984375
0.739593505859375	0.741302490234375	0.00059869384765625
0.742034912109375	0.743804931640625	0.00062298583984375
0.744476318359375	0.7452392578125	0.00064849853515625
0.746917724609375	0.747802734375	0.00067413330078125
0.749359130859375	0.74981689453125	0.00070037841796875
0.751800537109375	0.7525634765625	0.0007269287109375
0.754241943359375	0.7550048828125	0.0007537841796875
0.756683349609375	0.75714111328125	0.00078125
0.759124755859375	0.7598876953125	0.000809326171875
0.761566162109375	0.76263427734375	0.00083770751953125
0.764007568359375	0.76446533203125	0.00086639404296875
0.766448974609375	0.76690673828125	0.00089569091796875
0.768890380859375	0.7696533203125	0.00092620849609375
0.771331787109375	0.77239990234375	0.00095703125
0.773773193359375	0.77484130859375	0.00098663330078125
0.776214599609375	0.7763671875	0.00101776123046875
0.778656005859375	0.77972412109375	0.0010491943359375
0.781097412109375	0.78125	0.00108123779296875
0.783538818359375	0.7843017578125	0.00111419677734375
0.785980224609375	0.7867431640625	0.001146240234375
0.788421630859375	0.7891845703125	0.00117919921875
0.790863037109375	0.79132080078125	0.0012127685546875
0.793304443359375	0.79376220703125	0.001246337890625
0.795745849609375	0.79681396484375	0.0012811279296875
0.798187255859375	0.79864501953125	0.00131439208984375
0.800628662109375	0.802001953125	0.001348876953125
0.798187255859375	0.7989501953125	0.0013031005859375
0.795745849609375	0.79620361328125	0.001258544921875
0.793304443359375	0.7940673828125	0.00121551513671875
0.790863037109375	0.7916259765625	0.0011737060546875
0.788421630859375	0.78948974609375	0.0011334228515625
0.785980224609375	0.78643798828125	0.0010943603515625
0.783538818359375	0.78399658203125	0.001055908203125
0.781097412109375	0.782470703125	0.001019287109375
0.778656005859375	0.77972412109375	0.00098358154296875
0.776214599609375	0.77728271484375	0.0009490966796875
0.773773193359375	0.77392578125	0.00091522216796875
0.771331787109375	0.772705078125	0.00088348388671875
0.768890380859375	0.7696533203125	0.00085205078125
0.766448974609375	0.7672119140625	0.00082122802734375
0.764007568359375	0.7647705078125	0.0007916259765625
0.761566162109375	0.76171875	0.0007635498046875
0.759124755859375	0.7598876953125	0.0007354736328125
0.756683349609375	0.7568359375	0.00070831298828125
0.754241943359375	0.7550048828125	0.000682373046875
0.751800537109375	0.751953125	0.00065673828125
0.749359130859375	0.75042724609375	0.00063201904296875
0.746917724609375	0.7476806640625	0.00060821533203125
0.744476318359375	0.745361328125	0.00058502197265625
0.742034912109375	0.742889404296875	0.00056243896484375
0.739593505859375	0.740386962890625	0.000540771484375
0.737152099609375	0.738037109375	0.0005194091796875
0.734710693359375	0.73553466796875	0.0004990234375
0.732269287109375	0.733154296875	0.000479522705078125
0.729827880859375	0.730621337890625	0.000460296630859375
0.727386474609375	0.728179931640625	0.000441436767578125
0.724945068359375	0.7257080078125	0.000423553466796875
0.722503662109375	0.7239990234375	0.00040625
0.720062255859375	0.72137451171875	0.000389434814453125
0.717620849609375	0.718963623046875	0.000373199462890625
0.715179443359375	0.71649169921875	0.00035748291015625
0.712738037109375	0.71405029296875	0.00034228515625
0.710296630859375	0.711578369140625	0.00032769775390625
0.707855224609375	0.70904541015625	0.000313568115234375
0.705413818359375	0.70660400390625	0.000299774169921875
0.702972412109375	0.70416259765625	0.000286590576171875
0.700531005859375	0.70166015625	0.00027386474609375
0.698089599609375	0.69927978515625	0.000261627197265625
0.695648193359375	0.69677734375	0.000249786376953125
0.693206787109375	0.69427490234375	0.00023858642578125
0.690765380859375	0.69183349609375	0.00022760009765625
0.688323974609375	0.68939208984375	0.000216888427734375
0.685882568359375	0.68695068359375	0.00020672607421875
0.683441162109375	0.684478759765625	0.00019708251953125
0.680999755859375	0.682098388671875	0.00018768310546875
0.678558349609375	0.679534912109375	0.0001785888671875
0.676116943359375	0.677154541015625	0.000169891357421875
0.673675537109375	0.674591064453125	0.00016156005859375
0.671234130859375	0.672149658203125	0.00015350341796875
0.668792724609375	0.669677734375	0.00014581298828125
0.666351318359375	0.66729736328125	0.00013836669921875
0.663909912109375	0.664825439453125	0.0001312255859375
0.661468505859375	0.6622314453125	0.000124420166015625
0.659027099609375	0.660003662109375	0.000117828369140625
0.656585693359375	0.65740966796875	0.000111541748046875
0.654144287109375	0.654998779296875	0.000105621337890625
0.651702880859375	0.652557373046875	9.9853515625E-05
0.649261474609375	0.650177001953125	9.423828125E-05
0.646820068359375	0.647613525390625	8.8958740234375E-05
0.644378662109375	0.645233154296875	8.3984375E-05
0.641937255859375	0.642791748046875	7.91015625E-05
0.639495849609375	0.64031982421875	7.4462890625E-05
0.637054443359375	0.637847900390625	7.0037841796875E-05
0.634613037109375	0.635345458984375	6.57958984375E-05
0.632171630859375	0.632965087890625	6.1767578125E-05
0.629730224609375	0.630523681640625	5.792236328125E-05
0.627288818359375	0.628082275390625	5.4229736328125E-05
0.624847412109375	0.6256103515625	5.0750732421875E-05
0.622406005859375	0.62310791015625	4.7430419921875E-05
0.619964599609375	0.620697021484375	4.42840576171875E-05
0.617523193359375	0.61822509765625	4.1302490234375E-05
0.615081787109375	0.615814208984375	3.85345458984375E-05
0.612640380859375	0.61334228515625	3.58642578125E-05
0.610198974609375	0.6114501953125	3.3355712890625E-05
0.607757568359375	0.608917236328125	3.09783935546875E-05
0.605316162109375	0.606475830078125	2.87750244140625E-05
0.602874755859375	0.603973388671875	2.66632080078125E-05
0.600433349609375	0.6015625	2.46917724609375E-05
0.597991943359375	0.5989990234375	2.283935546875E-05
0.595550537109375	0.5965576171875	2.110595703125E-05
0.593109130859375	0.594085693359375	1.9488525390625E-05
0.590667724609375	0.59161376953125	1.7974853515625E-05
0.588226318359375	0.589141845703125	1.65618896484375E-05
0.585784912109375	0.586639404296875	1.5252685546875E-05
0.583343505859375	0.58416748046875	1.40472412109375E-05
0.580902099609375	0.5816650390625	1.2921142578125E-05
0.578460693359375	0.5792236328125	1.18927001953125E-05
0.576019287109375	0.57684326171875	1.09405517578125E-05
0.573577880859375	0.574371337890625	1.00616455078125E-05
0.571136474609375	0.571868896484375	9.228515625E-06
0.568695068359375	0.569427490234375	8.477783203125E-06
0.566253662109375	0.56707763671875	7.7880859375E-06
0.563812255859375	0.5645751953125	7.1502685546875E-06
0.561370849609375	0.56207275390625	6.5643310546875E-06
0.558929443359375	0.55963134765625	6.01806640625E-06
0.556488037109375	0.55718994140625	5.5145263671875E-06
0.554046630859375	0.554718017578125	5.0628662109375E-06
0.551605224609375	0.552337646484375	4.632568359375E-06
0.549163818359375	0.54986572265625	4.25018310546875E-06
0.546722412109375	0.54736328125	3.88519287109375E-06
0.544281005859375	0.545013427734375	3.56353759765625E-06
0.541839599609375	0.54248046875	3.2586669921875E-06
0.539398193359375	0.540557861328125	2.982177734375E-06
0.536956787109375	0.537994384765625	2.7362060546875E-06
0.534515380859375	0.5355224609375	2.50152587890625E-06
0.532073974609375	0.53302001953125	2.28271484375E-06
0.529632568359375	0.53057861328125	2.08587646484375E-06
0.527191162109375	0.52813720703125	1.903076171875E-06
0.524749755859375	0.52569580078125	1.73248291015625E-06
0.522308349609375	0.523193359375	1.5777587890625E-06
0.519866943359375	0.520660400390625	1.43341064453125E-06
0.517425537109375	0.518280029296875	1.29425048828125E-06
0.514984130859375	0.51580810546875	1.171875E-06
0.512542724609375	0.513275146484375	1.0540771484375E-06
0.510101318359375	0.510833740234375	9.4207763671875E-07
0.507659912109375	0.508392333984375	8.3465576171875E-07
0.505218505859375	0.50592041015625	7.403564453125E-07
0.502777099609375	0.503509521484375	6.48193359375E-07
0.500335693359375	0.50091552734375	5.657958984375E-07
0.497894287109375	0.498626708984375	4.876708984375E-07
0.495452880859375	0.49609375	4.0740966796875E-07
0.493011474609375	0.493682861328125	3.350830078125E-07
0.490570068359375	0.4912109375	2.7374267578125E-07
0.488128662109375	0.488677978515625	2.215576171875E-07
0.485687255859375	0.48681640625	1.6021728515625E-07
0.483245849609375	0.483978271484375	1.1181640625E-07
0.480804443359375	0.481689453125	5.1025390625E-08
0.478363037109375	0.47918701171875	7.99560546875E-09
0.475921630859375	0.47650146484375	-4.2510986328125E-08
0.473480224609375	0.47393798828125	-7.84912109375E-08
0.471038818359375	0.471282958984375	-1.2750244140625E-07
0.468597412109375	0.469024658203125	-1.622314453125E-07
0.466156005859375	0.466522216796875	-2.000732421875E-07
0.463714599609375	0.463623046875	-2.33062744140625E-07
0.461273193359375	0.46136474609375	-2.713623046875E-07
0.458831787109375	0.458892822265625	-3.01910400390625E-07
0.456390380859375	0.456634521484375	-3.32916259765625E-07
0.453948974609375	0.453826904296875	-3.70697021484375E-07
0.451507568359375	0.451141357421875	-4.0142822265625E-07
0.449066162109375	0.448944091796875	-4.3121337890625E-07
0.446624755859375	0.446197509765625	-4.6820068359375E-07
0.444183349609375	0.44403076171875	-4.9969482421875E-07
0.441741943359375	0.441497802734375	-5.3125E-07
0.439300537109375	0.43865966796875	-5.58349609375E-07
0.436859130859375	0.4364013671875	-5.89813232421875E-07
0.434417724609375	0.434051513671875	-6.1883544921875E-07
0.431976318359375	0.4324951171875	-6.500244140625E-07
0.429534912109375	0.42999267578125	-6.7840576171875E-07
0.427093505859375	0.42755126953125	-7.0037841796875E-07
0.424652099609375	0.425018310546875	-7.2662353515625E-07
0.422210693359375	0.422698974609375	-7.5042724609375E-07
0.419769287109375	0.4202880859375	-7.7178955078125E-07
0.417327880859375	0.4178466796875	-7.9345703125E-07
0.414886474609375	0.415252685546875	-8.1817626953125E-07
0.412445068359375	0.412872314453125	-8.43505859375E-07
0.410003662109375	0.41046142578125	-8.5693359375E-07
0.407562255859375	0.407989501953125	-8.8043212890625E-07
0.405120849609375	0.405548095703125	-8.97216796875E-07
0.402679443359375	0.403076171875	-9.16748046875E-07
0.400238037109375	0.400634765625	-9.381103515625E-07
0.397796630859375	0.398101806640625	-9.5428466796875E-07
0.395355224609375	0.395782470703125	-9.771728515625E-07
0.392913818359375	0.393280029296875	-9.9761962890625E-07
0.390472412109375	0.39080810546875	-1.01654052734375E-06
0.388031005859375	0.388397216796875	-1.03851318359375E-06
0.385589599609375	0.38592529296875	-1.06201171875E-06
0.383148193359375	0.383544921875	-1.08184814453125E-06
0.380706787109375	0.381072998046875	-1.0986328125E-06
0.378265380859375	0.37860107421875	-1.11724853515625E-06
0.375823974609375	0.37615966796875	-1.1370849609375E-06
0.373382568359375	0.373748779296875	-1.15814208984375E-06
0.370941162109375	0.371368408203125	-1.16943359375E-06
0.368499755859375	0.368865966796875	-1.181640625E-06
0.366058349609375	0.36639404296875	-1.201171875E-06
0.363616943359375	0.364013671875	-1.2127685546875E-06
0.361175537109375	0.361541748046875	-1.2249755859375E-06
0.358734130859375	0.359039306640625	-1.23443603515625E-06
0.356292724609375	0.356597900390625	-1.24420166015625E-06
0.353851318359375	0.354156494140625	-1.25152587890625E-06
0.351409912109375	0.351715087890625	-1.26251220703125E-06
0.348968505859375	0.349365234375	-1.2701416015625E-06
0.346527099609375	0.346832275390625	-1.27655029296875E-06
0.344085693359375	0.344390869140625	-1.2811279296875E-06
0.341644287109375	0.34197998046875	-1.282958984375E-06
0.339202880859375	0.339599609375	-1.29241943359375E-06
0.336761474609375	0.3370361328125	-1.2945556640625E-06
0.334320068359375	0.334625244140625	-1.30035400390625E-06
0.331878662109375	0.332183837890625	-1.30096435546875E-06
0.329437255859375	0.32977294921875	-1.3055419921875E-06
0.326995849609375	0.327362060546875	-1.31195068359375E-06
0.324554443359375	0.324920654296875	-1.318359375E-06
0.322113037109375	0.32244873046875	-1.32232666015625E-06
0.319671630859375	0.319976806640625	-1.32171630859375E-06
0.317230224609375	0.3175048828125	-1.32354736328125E-06
0.314788818359375	0.31512451171875	-1.3299560546875E-06
0.312347412109375	0.3126220703125	-1.33087158203125E-06
0.309906005859375	0.3101806640625	-1.33148193359375E-06
0.307464599609375	0.307830810546875	-1.33331298828125E-06
0.305023193359375	0.305267333984375	-1.33544921875E-06
0.302581787109375	0.302947998046875	-1.33087158203125E-06
0.300140380859375	0.30047607421875	-1.3336181640625E-06
0.297698974609375	0.298004150390625	-1.32843017578125E-06
0.295257568359375	0.29559326171875	-1.3311767578125E-06
0.292816162109375	0.29315185546875	-1.3262939453125E-06
0.290374755859375	0.2906494140625	-1.32965087890625E-06
0.287933349609375	0.288238525390625	-1.3262939453125E-06
0.285491943359375	0.285797119140625	-1.32415771484375E-06
0.283050537109375	0.283477783203125	-1.324462890625E-06
0.280609130859375	0.280914306640625	-1.32843017578125E-06
0.278167724609375	0.27850341796875	-1.329345703125E-06
0.275726318359375	0.275909423828125	-1.33056640625E-06
0.273284912109375	0.273590087890625	-1.33026123046875E-06
0.270843505859375	0.271026611328125	-1.3348388671875E-06
0.268402099609375	0.26861572265625	-1.3372802734375E-06
0.265960693359375	0.26617431640625	-1.34063720703125E-06
0.263519287109375	0.2637939453125	-1.34429931640625E-06
0.261077880859375	0.2613525390625	-1.34765625E-06
0.258636474609375	0.25885009765625	-1.3519287109375E-06
0.256195068359375	0.256439208984375	-1.35467529296875E-06
0.253753662109375	0.25408935546875	-1.35772705078125E-06
0.251312255859375	0.251556396484375	-1.35894775390625E-06
0.248870849609375	0.249053955078125	-1.36627197265625E-06
0.246429443359375	0.246612548828125	-1.36077880859375E-06
0.243988037109375	0.244293212890625	-1.365966796875E-06
0.241546630859375	0.2418212890625	-1.36688232421875E-06
0.239105224609375	0.239349365234375	-1.36688232421875E-06
0.236663818359375	0.2369384765625	-1.36871337890625E-06
0.234222412109375	0.23443603515625	-1.36688232421875E-06
0.231781005859375	0.2320556640625	-1.3720703125E-06
0.229339599609375	0.229522705078125	-1.370849609375E-06
0.226898193359375	0.227142333984375	-1.36871337890625E-06
0.224456787109375	0.22479248046875	-1.3702392578125E-06
0.222015380859375	0.2222900390625	-1.37115478515625E-06
0.219573974609375	0.219818115234375	-1.37481689453125E-06
0.217132568359375	0.217437744140625	-1.38214111328125E-06
0.214691162109375	0.214996337890625	-1.38092041015625E-06
0.212249755859375	0.212493896484375	-1.383056640625E-06
0.209808349609375	0.21002197265625	-1.3909912109375E-06
0.207366943359375	0.207611083984375	-1.39373779296875E-06
0.204925537109375	0.205169677734375	-1.39556884765625E-06
0.202484130859375	0.2027587890625	-1.4056396484375E-06
0.200042724609375	0.2001953125	-1.40472412109375E-06
0.197601318359375	0.197784423828125	-1.40777587890625E-06
0.195159912109375	0.1954345703125	-1.40960693359375E-06
0.192718505859375	0.1929931640625	-1.4166259765625E-06
0.190277099609375	0.190521240234375	-1.41815185546875E-06
0.187835693359375	0.188201904296875	-1.41815185546875E-06
0.185394287109375	0.18572998046875	-1.4166259765625E-06
0.182952880859375	0.183197021484375	-1.424560546875E-06
0.180511474609375	0.180755615234375	-1.42486572265625E-06
0.178070068359375	0.17828369140625	-1.42608642578125E-06
0.175628662109375	0.175872802734375	-1.42730712890625E-06
0.173187255859375	0.173492431640625	-1.42578125E-06
0.170745849609375	0.17095947265625	-1.4288330078125E-06
0.168304443359375	0.168548583984375	-1.43035888671875E-06
0.165863037109375	0.166107177734375	-1.43341064453125E-06
0.163421630859375	0.1636962890625	-1.43585205078125E-06
0.160980224609375	0.161163330078125	-1.439208984375E-06
0.158538818359375	0.15875244140625	-1.44287109375E-06
0.156097412109375	0.15618896484375	-1.4459228515625E-06
0.153656005859375	0.153778076171875	-1.4508056640625E-06
0.151214599609375	0.151397705078125	-1.4532470703125E-06
0.148773193359375	0.14898681640625	-1.463623046875E-06
0.146331787109375	0.146636962890625	-1.46392822265625E-06
0.143890380859375	0.144073486328125	-1.46636962890625E-06
0.141448974609375	0.1416015625	-1.47216796875E-06
0.139007568359375	0.139190673828125	-1.47613525390625E-06
0.136566162109375	0.136810302734375	-1.47674560546875E-06
0.134124755859375	0.13427734375	-1.4794921875E-06
0.131683349609375	0.13189697265625	-1.4862060546875E-06
0.129241943359375	0.12933349609375	-1.48651123046875E-06
0.126800537109375	0.12701416015625	-1.49200439453125E-06
0.124359130859375	0.12445068359375	-1.49566650390625E-06
0.121917724609375	0.122100830078125	-1.49749755859375E-06
0.119476318359375	0.11962890625	-1.49871826171875E-06
0.117034912109375	0.11712646484375	-1.49810791015625E-06
0.114593505859375	0.114715576171875	-1.5045166015625E-06
0.112152099609375	0.112274169921875	-1.50726318359375E-06
0.109710693359375	0.10986328125	-1.510009765625E-06
0.107269287109375	0.107452392578125	-1.510009765625E-06
0.104827880859375	0.105010986328125	-1.51458740234375E-06
0.102386474609375	0.102508544921875	-1.519775390625E-06
0.099945068359375	0.10003662109375	-1.5234375E-06
0.097503662109375	0.09765625	-1.52801513671875E-06
0.095062255859375	0.095184326171875	-1.52923583984375E-06
0.092620849609375	0.092803955078125	-1.539306640625E-06
0.090179443359375	0.090301513671875	-1.5435791015625E-06
0.087738037109375	0.087890625	-1.54632568359375E-06
0.090179443359375	0.09039306640625	-1.38580322265625E-06
0.092620849609375	0.092864990234375	-1.268310546875E-06
0.095062255859375	0.0953369140625	-1.163330078125E-06
0.097503662109375	0.097808837890625	-1.077880859375E-06
0.099945068359375	0.100128173828125	-9.8876953125E-07
0.102386474609375	0.102630615234375	-9.173583984375E-07
0.104827880859375	0.105133056640625	-8.441162109375E-07
0.107269287109375	0.1075439453125	-7.7728271484375E-07
0.109710693359375	0.1099853515625	-7.177734375E-07
0.112152099609375	0.112457275390625	-6.5643310546875E-07
0.114593505859375	0.114898681640625	-5.99365234375E-07
0.117034912109375	0.11737060546875	-5.48095703125E-07
0.119476318359375	0.119842529296875	-4.9102783203125E-07
0.121917724609375	0.122344970703125	-4.4158935546875E-07
0.124359130859375	0.12469482421875	-3.8726806640625E-07
0.126800537109375	0.127197265625	-3.4210205078125E-07
0.129241943359375	0.129608154296875	-2.9632568359375E-07
0.131683349609375	0.131683349609375	-2.578125E-07
0.134124755859375	0.13421630859375	-2.18170166015625E-07
0.136566162109375	0.136505126953125	-1.77001953125E-07
0.139007568359375	0.139068603515625	-1.42730712890625E-07
0.141448974609375	0.1414794921875	-1.10198974609375E-07
0.143890380859375	0.14410400390625	-7.2906494140625E-08
0.146331787109375	0.146759033203125	-3.692626953125E-08
0.148773193359375	0.149017333984375	-3.448486328125E-09
0.151214599609375	0.151824951171875	3.057861328125E-08
0.153656005859375	0.154144287109375	6.4483642578125E-08
0.156097412109375	0.156341552734375	9.9822998046875E-08
0.158538818359375	0.15924072265625	1.27960205078125E-07
0.160980224609375	0.16162109375	1.62445068359375E-07
0.163421630859375	0.164215087890625	1.91802978515625E-07
0.165863037109375	0.1666259765625	2.2283935546875E-07
0.168304443359375	0.168914794921875	2.4871826171875E-07
0.170745849609375	0.17169189453125	2.82623291015625E-07
0.173187255859375	0.1739501953125	3.08502197265625E-07
0.175628662109375	0.17669677734375	3.3734130859375E-07
0.178070068359375	0.178863525390625	3.616943359375E-07
0.180511474609375	0.18145751953125	3.896484375E-07
0.182952880859375	0.184112548828125	4.1571044921875E-07
0.185394287109375	0.1864013671875	4.3896484375E-07
0.187835693359375	0.18902587890625	4.61212158203125E-07
0.190277099609375	0.19140625	4.8431396484375E-07
0.192718505859375	0.19403076171875	5.08697509765625E-07
0.195159912109375	0.19677734375	5.2850341796875E-07
0.197601318359375	0.198822021484375	5.49102783203125E-07
0.200042724609375	0.201385498046875	5.726318359375E-07
0.202484130859375	0.2039794921875	5.87005615234375E-07
0.204925537109375	0.20648193359375	6.12884521484375E-07
0.207366943359375	0.2080078125	6.3507080078125E-07
0.209808349609375	0.210357666015625	6.55517578125E-07
0.212249755859375	0.21282958984375	6.7291259765625E-07
0.214691162109375	0.215240478515625	6.9366455078125E-07
0.217132568359375	0.2176513671875	7.1807861328125E-07
0.219573974609375	0.22015380859375	7.3455810546875E-07
0.222015380859375	0.222625732421875	7.6019287109375E-07
0.224456787109375	0.225067138671875	7.769775390625E-07
0.226898193359375	0.22747802734375	7.99560546875E-07
0.229339599609375	0.22991943359375	8.1756591796875E-07
0.231781005859375	0.232330322265625	8.4136962890625E-07
0.234222412109375	0.23480224609375	8.60595703125E-07
0.236663818359375	0.237274169921875	8.8165283203125E-07
0.239105224609375	0.23974609375	9.033203125E-07
0.241546630859375	0.2421875	9.222412109375E-07
0.243988037109375	0.244659423828125	9.4146728515625E-07
0.246429443359375	0.247039794921875	9.625244140625E-07
0.248870849609375	0.249481201171875	9.759521484375E-07
0.251312255859375	0.251953125	9.8968505859375E-07
0.253753662109375	0.25445556640625	1.0052490234375E-06
0.256195068359375	0.2568359375	1.0235595703125E-06
0.258636474609375	0.259307861328125	1.03851318359375E-06
0.261077880859375	0.261749267578125	1.0595703125E-06
0.263519287109375	0.264190673828125	1.072998046875E-06
0.265960693359375	0.266510009765625	1.09283447265625E-06
0.268402099609375	0.269012451171875	1.10809326171875E-06
0.270843505859375	0.271484375	1.13250732421875E-06
0.273284912109375	0.273895263671875	1.15142822265625E-06
0.275726318359375	0.276397705078125	1.177978515625E-06
0.278167724609375	0.278900146484375	1.187744140625E-06
0.280609130859375	0.2813720703125	1.2139892578125E-06
0.283050537109375	0.283782958984375	1.23504638671875E-06
0.285491943359375	0.2862548828125	1.2530517578125E-06
0.287933349609375	0.288665771484375	1.2774658203125E-06
0.290374755859375	0.2911376953125	1.300048828125E-06
0.292816162109375	0.29345703125	1.3189697265625E-06
0.295257568359375	0.295989990234375	1.33819580078125E-06
0.297698974609375	0.298309326171875	1.36016845703125E-06
0.300140380859375	0.300872802734375	1.37786865234375E-06
0.302581787109375	0.30340576171875	1.3970947265625E-06
0.305023193359375	0.305694580078125	1.41204833984375E-06
0.307464599609375	0.3082275390625	1.42974853515625E-06
0.309906005859375	0.3106689453125	1.44622802734375E-06
0.312347412109375	0.313079833984375	1.46453857421875E-06
0.314788818359375	0.315521240234375	1.48712158203125E-06
0.317230224609375	0.318023681640625	1.50360107421875E-06
0.319671630859375	0.3204345703125	1.52557373046875E-06
0.322113037109375	0.32293701171875	1.54296875E-06
0.324554443359375	0.325408935546875	1.5643310546875E-06
0.326995849609375	0.32781982421875	1.58447265625E-06
0.329437255859375	0.33026123046875	1.607666015625E-06
0.331878662109375	0.3326416015625	1.629638671875E-06
0.334320068359375	0.33514404296875	1.65069580078125E-06
0.336761474609375	0.3375244140625	1.67724609375E-06
0.339202880859375	0.34002685546875	1.70928955078125E-06
0.341644287109375	0.3424072265625	1.7327880859375E-06
0.344085693359375	0.3448486328125	1.75262451171875E-06
0.346527099609375	0.34735107421875	1.7816162109375E-06
0.348968505859375	0.349700927734375	1.8060302734375E-06
0.351409912109375	0.35223388671875	1.82952880859375E-06
0.353851318359375	0.3546142578125	1.8560791015625E-06
0.356292724609375	0.35711669921875	1.87774658203125E-06
0.358734130859375	0.35955810546875	1.9024658203125E-06
0.361175537109375	0.362030029296875	1.9232177734375E-06
0.363616943359375	0.364501953125	1.94244384765625E-06
0.366058349609375	0.36700439453125	1.9671630859375E-06
0.368499755859375	0.369384765625	1.988525390625E-06
0.370941162109375	0.371856689453125	2.0196533203125E-06
0.373382568359375	0.37420654296875	2.037353515625E-06
0.375823974609375	0.376617431640625	2.06939697265625E-06
0.378265380859375	0.37908935546875	2.0947265625E-06
0.380706787109375	0.38153076171875	2.12799072265625E-06
0.383148193359375	0.384033203125	2.1514892578125E-06
0.385589599609375	0.386444091796875	2.18658447265625E-06
0.388031005859375	0.389007568359375	2.2149658203125E-06
0.390472412109375	0.391326904296875	2.24945068359375E-06
0.392913818359375	0.393829345703125	2.281494140625E-06
0.395355224609375	0.396270751953125	2.32025146484375E-06
0.397796630859375	0.39874267578125	2.3492431640625E-06
0.400238037109375	0.401214599609375	2.3870849609375E-06
0.402679443359375	0.403717041015625	2.41912841796875E-06
0.405120849609375	0.406158447265625	2.454833984375E-06
0.407562255859375	0.40850830078125	2.48870849609375E-06
0.410003662109375	0.41094970703125	2.5225830078125E-06
0.412445068359375	0.413421630859375	2.55035400390625E-06
0.414886474609375	0.415771484375	2.5872802734375E-06
0.417327880859375	0.418365478515625	2.6171875E-06
0.419769287109375	0.42071533203125	2.655029296875E-06
0.422210693359375	0.423187255859375	2.67974853515625E-06
0.424652099609375	0.42572021484375	2.7142333984375E-06
0.427093505859375	0.428070068359375	2.75054931640625E-06
0.429534912109375	0.430511474609375	2.791748046875E-06
0.431976318359375	0.4329833984375	2.8369140625E-06
0.434417724609375	0.43548583984375	2.87261962890625E-06
0.436859130859375	0.43792724609375	2.92083740234375E-06
0.439300537109375	0.44036865234375	2.95806884765625E-06
0.441741943359375	0.44281005859375	3.00811767578125E-06
0.444183349609375	0.445281982421875	3.05267333984375E-06
0.446624755859375	0.447723388671875	3.10150146484375E-06
0.449066162109375	0.45013427734375	3.1475830078125E-06
0.451507568359375	0.452606201171875	3.19610595703125E-06
0.453948974609375	0.455078125	3.2421875E-06
0.456390380859375	0.457550048828125	3.29803466796875E-06
0.458831787109375	0.459930419921875	3.34503173828125E-06
0.461273193359375	0.46234130859375	3.3941650390625E-06
0.463714599609375	0.464813232421875	3.443603515625E-06
0.466156005859375	0.46728515625	3.49395751953125E-06
0.468597412109375	0.4697265625	3.5498046875E-06
0.471038818359375	0.472320556640625	3.5968017578125E-06
0.473480224609375	0.474639892578125	3.64776611328125E-06
0.475921630859375	0.47711181640625	3.704833984375E-06
0.478363037109375	0.4796142578125	3.7548828125E-06
0.480804443359375	0.481964111328125	3.81988525390625E-06
0.483245849609375	0.48443603515625	3.8739013671875E-06
0.485687255859375	0.48687744140625	3.9385986328125E-06
0.488128662109375	0.4893798828125	4.00238037109375E-06
0.490570068359375	0.49188232421875	4.063720703125E-06
0.493011474609375	0.494293212890625	4.134521484375E-06
0.495452880859375	0.496795654296875	4.20989990234375E-06
0.497894287109375	0.499267578125	4.287109375E-06
0.500335693359375	0.501556396484375	4.359130859375E-06
0.502777099609375	0.504058837890625	4.43695068359375E-06
0.505218505859375	0.50653076171875	4.51385498046875E-06
0.507659912109375	0.50897216796875	4.595947265625E-06
0.510101318359375	0.511322021484375	4.68353271484375E-06
0.512542724609375	0.51385498046875	4.7705078125E-06
0.514984130859375	0.5162353515625	4.8626708984375E-06
0.517425537109375	0.518829345703125	4.94598388671875E-06
0.519866943359375	0.521240234375	5.04638671875E-06
0.522308349609375	0.5238037109375	5.1385498046875E-06
0.524749755859375	0.52630615234375	5.24200439453125E-06
0.527191162109375	0.528656005859375	5.35400390625E-06
0.529632568359375	0.53106689453125	5.462646484375E-06
0.532073974609375	0.533538818359375	5.6005859375E-06
0.534515380859375	0.536163330078125	5.721435546875E-06
0.536956787109375	0.53857421875	5.87249755859375E-06
0.539398193359375	0.540924072265625	6.01470947265625E-06
0.541839599609375	0.54248046875	6.1920166015625E-06
0.544281005859375	0.54498291015625	6.35986328125E-06
0.546722412109375	0.54742431640625	6.5521240234375E-06
0.549163818359375	0.549896240234375	6.7535400390625E-06
0.551605224609375	0.5523681640625	6.976318359375E-06
0.554046630859375	0.554779052734375	7.208251953125E-06
0.556488037109375	0.557220458984375	7.4615478515625E-06
0.558929443359375	0.5596923828125	7.733154296875E-06
0.561370849609375	0.5621337890625	8.02001953125E-06
0.563812255859375	0.564605712890625	8.3404541015625E-06
0.566253662109375	0.567047119140625	8.6761474609375E-06
0.568695068359375	0.56939697265625	9.0240478515625E-06
0.571136474609375	0.571868896484375	9.417724609375E-06
0.573577880859375	0.574371337890625	9.857177734375E-06
0.576019287109375	0.57684326171875	1.0321044921875E-05
0.578460693359375	0.579193115234375	1.0809326171875E-05
0.580902099609375	0.58172607421875	1.13494873046875E-05
0.583343505859375	0.584197998046875	1.19415283203125E-05
0.585784912109375	0.586639404296875	1.2567138671875E-05
0.588226318359375	0.589080810546875	1.32568359375E-05
0.590667724609375	0.59149169921875	1.400146484375E-05
0.593109130859375	0.594024658203125	1.4788818359375E-05
0.595550537109375	0.596466064453125	1.5643310546875E-05
0.597991943359375	0.598968505859375	1.656494140625E-05
0.600433349609375	0.601348876953125	1.75506591796875E-05
0.602874755859375	0.603851318359375	1.86126708984375E-05
0.605316162109375	0.606292724609375	1.97509765625E-05
0.607757568359375	0.608795166015625	2.09442138671875E-05
0.610198974609375	0.611236572265625	2.22503662109375E-05
0.612640380859375	0.61370849609375	2.36663818359375E-05
0.615081787109375	0.616119384765625	2.5177001953125E-05
0.617523193359375	0.6185302734375	2.6751708984375E-05
0.619964599609375	0.621124267578125	2.8485107421875E-05
0.622406005859375	0.62353515625	3.03436279296875E-05
0.624847412109375	0.62603759765625	3.23150634765625E-05
0.627288818359375	0.628509521484375	3.4429931640625E-05
0.629730224609375	0.631011962890625	3.673095703125E-05
0.632171630859375	0.633453369140625	3.916015625E-05
0.634613037109375	0.635986328125	4.17510986328125E-05
0.637054443359375	0.63848876953125	4.453125E-05
0.639495849609375	0.6409912109375	4.7491455078125E-05
0.641937255859375	0.6434326171875	5.06439208984375E-05
0.644378662109375	0.645965576171875	5.39825439453125E-05
0.646820068359375	0.648345947265625	5.7476806640625E-05
0.649261474609375	0.650909423828125	6.12274169921875E-05
0.651702880859375	0.652496337890625	6.524658203125E-05
0.654144287109375	0.654998779296875	6.9427490234375E-05
0.656585693359375	0.6573486328125	7.3760986328125E-05
0.659027099609375	0.65985107421875	7.843017578125E-05
0.661468505859375	0.66229248046875	8.331298828125E-05
0.663909912109375	0.66473388671875	8.843994140625E-05
0.666351318359375	0.66717529296875	9.3841552734375E-05
0.668792724609375	0.669647216796875	9.954833984375E-05
0.671234130859375	0.672119140625	0.000105438232421875
0.673675537109375	0.674560546875	0.00011163330078125
0.676116943359375	0.676971435546875	0.000118133544921875
0.678558349609375	0.679443359375	0.000124908447265625
0.680999755859375	0.68194580078125	0.000131988525390625
0.683441162109375	0.684417724609375	0.000139373779296875
0.685882568359375	0.68670654296875	0.00014697265625
0.688323974609375	0.689178466796875	0.000154937744140625
0.690765380859375	0.691741943359375	0.000163421630859375
0.693206787109375	0.694183349609375	0.000172149658203125
0.695648193359375	0.696624755859375	0.000181060791015625
0.698089599609375	0.6990966796875	0.0001904296875
0.700531005859375	0.701507568359375	0.0002001953125
0.702972412109375	0.7039794921875	0.000210357666015625
0.705413818359375	0.706512451171875	0.00022088623046875
0.707855224609375	0.7088623046875	0.00023187255859375
0.710296630859375	0.711395263671875	0.00024310302734375
0.712738037109375	0.71392822265625	0.0002547607421875
0.715179443359375	0.71636962890625	0.00026678466796875
0.717620849609375	0.718780517578125	0.000279296875
0.720062255859375	0.721221923828125	0.000291961669921875
0.722503662109375	0.723846435546875	0.00030511474609375
0.724945068359375	0.726165771484375	0.000318572998046875
0.727386474609375	0.72857666015625	0.00033258056640625
0.729827880859375	0.731170654296875	0.00034722900390625
0.732269287109375	0.733642578125	0.000362060546875
0.734710693359375	0.736053466796875	0.0003770751953125
0.737152099609375	0.738616943359375	0.000392669677734375
0.739593505859375	0.740966796875	0.000408721923828125
0.742034912109375	0.743438720703125	0.0004251708984375
0.744476318359375	0.746002197265625	0.000442108154296875
0.746917724609375	0.7484130859375	0.00045941162109375
0.749359130859375	0.7501220703125	0.00047705078125
0.751800537109375	0.75225830078125	0.000494964599609375
0.754241943359375	0.75469970703125	0.000513092041015625
0.756683349609375	0.75775146484375	0.0005318603515625
0.759124755859375	0.76019287109375	0.000551025390625
0.761566162109375	0.76263427734375	0.00057037353515625
0.764007568359375	0.7647705078125	0.000589691162109375
0.766448974609375	0.76812744140625	0.00060968017578125
0.768890380859375	0.76904296875	0.00063079833984375
0.771331787109375	0.7720947265625	0.00065155029296875
0.773773193359375	0.77423095703125	0.0006719970703125
0.776214599609375	0.77606201171875	0.0006939697265625
0.778656005859375	0.77972412109375	0.0007147216796875
0.781097412109375	0.78216552734375	0.0007366943359375
0.783538818359375	0.78460693359375	0.00075897216796875
0.785980224609375	0.7867431640625	0.00078125
0.788421630859375	0.78857421875	0.0008038330078125
0.790863037109375	0.79193115234375	0.000826416015625
0.793304443359375	0.79376220703125	0.0008489990234375
0.795745849609375	0.7965087890625	0.00087249755859375
0.798187255859375	0.7989501953125	0.00089599609375
0.800628662109375	0.80108642578125	0.00091949462890625
0.798187255859375	0.79864501953125	0.00088714599609375
0.795745849609375	0.7965087890625	0.0008563232421875
0.793304443359375	0.79376220703125	0.00082611083984375
0.790863037109375	0.7916259765625	0.000797119140625
0.788421630859375	0.7891845703125	0.00076934814453125
0.785980224609375	0.78643798828125	0.00074249267578125
0.783538818359375	0.78460693359375	0.0007159423828125
0.781097412109375	0.78155517578125	0.00069061279296875
0.778656005859375	0.77972412109375	0.00066619873046875
0.776214599609375	0.77728271484375	0.0006427001953125
0.773773193359375	0.7745361328125	0.00061981201171875
0.771331787109375	0.77301025390625	0.00059814453125
0.768890380859375	0.76934814453125	0.00057647705078125
0.766448974609375	0.7666015625	0.00055572509765625
0.764007568359375	0.7647705078125	0.00053558349609375
0.761566162109375	0.76202392578125	0.000516357421875
0.759124755859375	0.7598876953125	0.0004974365234375
0.756683349609375	0.75775146484375	0.00047906494140625
0.754241943359375	0.75531005859375	0.000461212158203125
0.751800537109375	0.75225830078125	0.000444061279296875
0.749359130859375	0.750152587890625	0.0004273681640625
0.746917724609375	0.7470703125	0.00041094970703125
0.744476318359375	0.74578857421875	0.0003951416015625
0.742034912109375	0.743316650390625	0.000379913330078125
0.739593505859375	0.74090576171875	0.000365203857421875
0.737152099609375	0.73846435546875	0.000350982666015625
0.734710693359375	0.73590087890625	0.00033721923828125
0.732269287109375	0.7335205078125	0.0003240966796875
0.729827880859375	0.731048583984375	0.0003111572265625
0.727386474609375	0.72869873046875	0.00029840087890625
0.724945068359375	0.726165771484375	0.000286376953125
0.722503662109375	0.723663330078125	0.00027484130859375
0.720062255859375	0.72125244140625	0.00026361083984375
0.717620849609375	0.718780517578125	0.000252716064453125
0.715179443359375	0.71630859375	0.000242218017578125
0.712738037109375	0.71380615234375	0.000232025146484375
0.710296630859375	0.711334228515625	0.00022222900390625
0.707855224609375	0.708892822265625	0.00021270751953125
0.705413818359375	0.7064208984375	0.0002034912109375
0.702972412109375	0.704010009765625	0.000194610595703125
0.700531005859375	0.70147705078125	0.00018609619140625
0.698089599609375	0.699066162109375	0.000177886962890625
0.695648193359375	0.6966552734375	0.000169952392578125
0.693206787109375	0.694183349609375	0.000162445068359375
0.690765380859375	0.691741943359375	0.00015509033203125
0.688323974609375	0.689208984375	0.000147918701171875
0.685882568359375	0.686767578125	0.00014111328125
0.683441162109375	0.684417724609375	0.00013470458984375
0.680999755859375	0.68182373046875	0.000128387451171875
0.678558349609375	0.679473876953125	0.000122344970703125
0.676116943359375	0.677032470703125	0.00011651611328125
0.673675537109375	0.674530029296875	0.000110931396484375
0.671234130859375	0.6719970703125	0.000105560302734375
0.668792724609375	0.669677734375	0.00010040283203125
0.666351318359375	0.667144775390625	9.5367431640625E-05
0.663909912109375	0.66473388671875	9.0606689453125E-05
0.661468505859375	0.6622314453125	8.60595703125E-05
0.659027099609375	0.659820556640625	8.1695556640625E-05
0.656585693359375	0.657379150390625	7.745361328125E-05
0.654144287109375	0.65496826171875	7.3455810546875E-05
0.651702880859375	0.652496337890625	6.9610595703125E-05
0.649261474609375	0.650054931640625	6.5826416015625E-05
0.646820068359375	0.647613525390625	6.2286376953125E-05
0.644378662109375	0.645111083984375	5.8929443359375E-05
0.641937255859375	0.6427001953125	5.56640625E-05
0.639495849609375	0.6402587890625	5.255126953125E-05
0.637054443359375	0.6378173828125	4.9560546875E-05
0.634613037109375	0.63543701171875	4.6722412109375E-05
0.632171630859375	0.63287353515625	4.40185546875E-05
0.629730224609375	0.630462646484375	4.14154052734375E-05
0.627288818359375	0.628021240234375	3.8922119140625E-05
0.624847412109375	0.626190185546875	3.658447265625E-05
0.622406005859375	0.623565673828125	3.43353271484375E-05
0.619964599609375	0.621185302734375	3.21929931640625E-05
0.617523193359375	0.61865234375	3.01483154296875E-05
0.615081787109375	0.6160888671875	2.8240966796875E-05
0.612640380859375	0.613739013671875	2.64007568359375E-05
0.610198974609375	0.611236572265625	2.46368408203125E-05
0.607757568359375	0.608734130859375	2.29888916015625E-05
0.605316162109375	0.606353759765625	2.1453857421875E-05
0.602874755859375	0.60394287109375	1.99737548828125E-05
0.600433349609375	0.601409912109375	1.85882568359375E-05
0.597991943359375	0.59893798828125	1.72698974609375E-05
0.595550537109375	0.596466064453125	1.60430908203125E-05
0.593109130859375	0.594024658203125	1.48834228515625E-05
0.590667724609375	0.591583251953125	1.37969970703125E-05
0.588226318359375	0.589019775390625	1.27685546875E-05
0.585784912109375	0.586578369140625	1.18072509765625E-05
0.583343505859375	0.5841064453125	1.09161376953125E-05
0.580902099609375	0.581695556640625	1.00799560546875E-05
0.578460693359375	0.5792236328125	9.307861328125E-06
0.576019287109375	0.5767822265625	8.587646484375E-06
0.573577880859375	0.574371337890625	7.916259765625E-06
0.571136474609375	0.5718994140625	7.28759765625E-06
0.568695068359375	0.569366455078125	6.7230224609375E-06
0.566253662109375	0.566986083984375	6.207275390625E-06
0.563812255859375	0.564544677734375	5.7159423828125E-06
0.561370849609375	0.5621337890625	5.2734375E-06
0.558929443359375	0.559600830078125	4.852294921875E-06
0.556488037109375	0.557159423828125	4.461669921875E-06
0.554046630859375	0.5546875	4.095458984375E-06
0.551605224609375	0.55224609375	3.759765625E-06
0.549163818359375	0.549835205078125	3.44818115234375E-06
0.546722412109375	0.54791259765625	3.16314697265625E-06
0.544281005859375	0.545318603515625	2.899169921875E-06
0.541839599609375	0.542877197265625	2.65899658203125E-06
0.539398193359375	0.540374755859375	2.4334716796875E-06
0.536956787109375	0.537872314453125	2.2344970703125E-06
0.534515380859375	0.535430908203125	2.03460693359375E-06
0.532073974609375	0.53289794921875	1.85028076171875E-06
0.529632568359375	0.530487060546875	1.685791015625E-06
0.527191162109375	0.528045654296875	1.5325927734375E-06
0.524749755859375	0.525482177734375	1.38946533203125E-06
0.522308349609375	0.523040771484375	1.2603759765625E-06
0.519866943359375	0.52069091796875	1.13189697265625E-06
0.517425537109375	0.5181884765625	1.01837158203125E-06
0.514984130859375	0.5157470703125	9.0972900390625E-07
0.512542724609375	0.51324462890625	8.1268310546875E-07
0.510101318359375	0.510833740234375	7.1502685546875E-07
0.507659912109375	0.508331298828125	6.353759765625E-07
0.505218505859375	0.505889892578125	5.487060546875E-07
0.502777099609375	0.50341796875	4.693603515625E-07
0.500335693359375	0.501007080078125	3.973388671875E-07
0.497894287109375	0.49859619140625	3.228759765625E-07
0.495452880859375	0.49615478515625	2.63671875E-07
0.493011474609375	0.493621826171875	1.9927978515625E-07
0.490570068359375	0.49114990234375	1.4434814453125E-07
0.488128662109375	0.488983154296875	9.27734375E-08
0.485687255859375	0.48626708984375	4.0374755859375E-08
0.483245849609375	0.483642578125	-1.7669677734375E-08
0.480804443359375	0.48138427734375	-6.475830078125E-08
0.478363037109375	0.478271484375	-1.12884521484375E-07
0.475921630859375	0.47625732421875	-1.5594482421875E-07
0.473480224609375	0.473785400390625	-2.00103759765625E-07
0.471038818359375	0.471099853515625	-2.38555908203125E-07
0.468597412109375	0.46875	-2.7728271484375E-07
0.466156005859375	0.465667724609375	-3.15399169921875E-07
0.463714599609375	0.463775634765625	-3.5284423828125E-07
0.461273193359375	0.461090087890625	-3.90380859375E-07
0.458831787109375	0.458587646484375	-4.16290283203125E-07
0.456390380859375	0.456268310546875	-4.57305908203125E-07
0.453948974609375	0.453338623046875	-4.8980712890625E-07
0.451507568359375	0.451324462890625	-5.1763916015625E-07
0.449066162109375	0.448822021484375	-5.45196533203125E-07
0.446624755859375	0.44610595703125	-5.77178955078125E-07
0.444183349609375	0.4439697265625	-6.03668212890625E-07
0.441741943359375	0.442291259765625	-6.365966796875E-07
0.439300537109375	0.439849853515625	-6.5948486328125E-07
0.436859130859375	0.437408447265625	-6.878662109375E-07
0.434417724609375	0.434967041015625	-7.18994140625E-07
0.431976318359375	0.4324951171875	-7.3974609375E-07
0.429534912109375	0.42999267578125	-7.6934814453125E-07
0.427093505859375	0.42755126953125	-7.9376220703125E-07
0.424652099609375	0.42510986328125	-8.1695556640625E-07
0.422210693359375	0.422576904296875	-8.3831787109375E-07
0.419769287109375	0.4202880859375	-8.624267578125E-07
0.417327880859375	0.417877197265625	-8.8226318359375E-07
0.414886474609375	0.415313720703125	-9.0606689453125E-07
0.412445068359375	0.41290283203125	-9.332275390625E-07
0.410003662109375	0.410430908203125	-9.53369140625E-07
0.407562255859375	0.4080810546875	-9.722900390625E-07
0.405120849609375	0.405548095703125	-9.9578857421875E-07
0.402679443359375	0.403076171875	-1.01531982421875E-06
0.400238037109375	0.400634765625	-1.0357666015625E-06
0.397796630859375	0.39813232421875	-1.0528564453125E-06
0.395355224609375	0.39569091796875	-1.0791015625E-06
0.392913818359375	0.393341064453125	-1.0980224609375E-06
0.390472412109375	0.390869140625	-1.11480712890625E-06
0.388031005859375	0.388336181640625	-1.13433837890625E-06
0.385589599609375	0.38592529296875	-1.1492919921875E-06
0.383148193359375	0.383514404296875	-1.1651611328125E-06
0.380706787109375	0.381011962890625	-1.17950439453125E-06
0.378265380859375	0.378662109375	-1.1993408203125E-06
0.375823974609375	0.376129150390625	-1.2200927734375E-06
0.373382568359375	0.3736572265625	-1.23077392578125E-06
0.370941162109375	0.37127685546875	-1.24420166015625E-06
0.368499755859375	0.368865966796875	-1.25762939453125E-06
0.366058349609375	0.366455078125	-1.27227783203125E-06
0.363616943359375	0.36395263671875	-1.2841796875E-06
0.361175537109375	0.361480712890625	-1.2933349609375E-06
0.358734130859375	0.359130859375	-1.30523681640625E-06
0.356292724609375	0.356658935546875	-1.3177490234375E-06
0.353851318359375	0.354248046875	-1.32781982421875E-06
0.351409912109375	0.3516845703125	-1.3336181640625E-06
0.348968505859375	0.349273681640625	-1.3421630859375E-06
0.346527099609375	0.346771240234375	-1.3525390625E-06
0.344085693359375	0.3443603515625	-1.35650634765625E-06
0.341644287109375	0.341949462890625	-1.35894775390625E-06
0.339202880859375	0.339508056640625	-1.36199951171875E-06
0.336761474609375	0.337127685546875	-1.3677978515625E-06
0.334320068359375	0.334564208984375	-1.3714599609375E-06
0.331878662109375	0.332244873046875	-1.37359619140625E-06
0.329437255859375	0.329681396484375	-1.3726806640625E-06
0.326995849609375	0.327301025390625	-1.37847900390625E-06
0.324554443359375	0.32489013671875	-1.3787841796875E-06
0.322113037109375	0.322418212890625	-1.37725830078125E-06
0.319671630859375	0.319976806640625	-1.3775634765625E-06
0.317230224609375	0.3175048828125	-1.37847900390625E-06
0.314788818359375	0.315093994140625	-1.37664794921875E-06
0.312347412109375	0.31256103515625	-1.37664794921875E-06
0.309906005859375	0.310150146484375	-1.3763427734375E-06
0.307464599609375	0.3077392578125	-1.380615234375E-06
0.305023193359375	0.305328369140625	-1.37939453125E-06
0.302581787109375	0.302886962890625	-1.37908935546875E-06
0.300140380859375	0.300445556640625	-1.37786865234375E-06
0.297698974609375	0.297943115234375	-1.3812255859375E-06
0.295257568359375	0.29547119140625	-1.38092041015625E-06
0.292816162109375	0.2930908203125	-1.38031005859375E-06
0.290374755859375	0.290679931640625	-1.38153076171875E-06
0.287933349609375	0.28814697265625	-1.38153076171875E-06
0.285491943359375	0.2857666015625	-1.38885498046875E-06
0.283050537109375	0.283416748046875	-1.39007568359375E-06
0.280609130859375	0.280853271484375	-1.3897705078125E-06
0.278167724609375	0.278472900390625	-1.39373779296875E-06
0.275726318359375	0.275970458984375	-1.3983154296875E-06
0.273284912109375	0.273468017578125	-1.3970947265625E-06
0.270843505859375	0.271026611328125	-1.39801025390625E-06
0.268402099609375	0.2685546875	-1.40228271484375E-06
0.265960693359375	0.266265869140625	-1.40533447265625E-06
0.263519287109375	0.2637939453125	-1.40625E-06
0.261077880859375	0.2613525390625	-1.40960693359375E-06
0.258636474609375	0.2589111328125	-1.4129638671875E-06
0.256195068359375	0.25640869140625	-1.41326904296875E-06
0.253753662109375	0.2540283203125	-1.41754150390625E-06
0.251312255859375	0.2515869140625	-1.4202880859375E-06
0.248870849609375	0.249114990234375	-1.42120361328125E-06
0.246429443359375	0.246734619140625	-1.427001953125E-06
0.243988037109375	0.24432373046875	-1.4263916015625E-06
0.241546630859375	0.24188232421875	-1.42974853515625E-06
0.239105224609375	0.239410400390625	-1.43310546875E-06
0.236663818359375	0.23699951171875	-1.439208984375E-06
0.234222412109375	0.23443603515625	-1.43829345703125E-06
0.231781005859375	0.231964111328125	-1.44195556640625E-06
0.229339599609375	0.229644775390625	-1.44561767578125E-06
0.226898193359375	0.227081298828125	-1.44775390625E-06
0.224456787109375	0.2247314453125	-1.44500732421875E-06
0.222015380859375	0.222320556640625	-1.4520263671875E-06
0.219573974609375	0.219696044921875	-1.4520263671875E-06
0.217132568359375	0.2174072265625	-1.46331787109375E-06
0.214691162109375	0.214935302734375	-1.458740234375E-06
0.212249755859375	0.2125244140625	-1.46209716796875E-06
0.209808349609375	0.2100830078125	-1.46453857421875E-06
0.207366943359375	0.207611083984375	-1.4654541015625E-06
0.204925537109375	0.205169677734375	-1.47064208984375E-06
0.202484130859375	0.20263671875	-1.4715576171875E-06
0.200042724609375	0.2003173828125	-1.47613525390625E-06
0.197601318359375	0.197845458984375	-1.47705078125E-06
0.195159912109375	0.1953125	-1.47796630859375E-06
0.192718505859375	0.1929931640625	-1.48681640625E-06
0.190277099609375	0.190521240234375	-1.48345947265625E-06
0.187835693359375	0.18804931640625	-1.48834228515625E-06
0.185394287109375	0.1856689453125	-1.49200439453125E-06
0.182952880859375	0.1832275390625	-1.49169921875E-06
0.180511474609375	0.180633544921875	-1.497802734375E-06
0.178070068359375	0.178253173828125	-1.49688720703125E-06
0.175628662109375	0.1759033203125	-1.502685546875E-06
0.173187255859375	0.173370361328125	-1.5008544921875E-06
0.170745849609375	0.1710205078125	-1.50482177734375E-06
0.168304443359375	0.168548583984375	-1.50909423828125E-06
0.165863037109375	0.166107177734375	-1.51123046875E-06
0.163421630859375	0.1636962890625	-1.5118408203125E-06
0.160980224609375	0.16119384765625	-1.514892578125E-06
0.158538818359375	0.15869140625	-1.52069091796875E-06
0.156097412109375	0.1563720703125	-1.52435302734375E-06
0.153656005859375	0.15386962890625	-1.52557373046875E-06
0.151214599609375	0.151397705078125	-1.527099609375E-06
0.148773193359375	0.148895263671875	-1.5283203125E-06
0.146331787109375	0.1466064453125	-1.53564453125E-06
0.143890380859375	0.144012451171875	-1.53167724609375E-06
0.141448974609375	0.141632080078125	-1.53839111328125E-06
0.139007568359375	0.139129638671875	-1.54205322265625E-06
0.136566162109375	0.136810302734375	-1.544189453125E-06
0.134124755859375	0.134368896484375	-1.5460205078125E-06
0.131683349609375	0.131866455078125	-1.55059814453125E-06
0.129241943359375	0.129486083984375	-1.5545654296875E-06
0.126800537109375	0.127044677734375	-1.5545654296875E-06
0.124359130859375	0.12451171875	-1.55487060546875E-06
0.121917724609375	0.122161865234375	-1.561279296875E-06
0.119476318359375	0.11956787109375	-1.56494140625E-06
0.117034912109375	0.117218017578125	-1.56982421875E-06
0.114593505859375	0.114776611328125	-1.56890869140625E-06
0.112152099609375	0.112335205078125	-1.572265625E-06
0.109710693359375	0.109893798828125	-1.5765380859375E-06
0.107269287109375	0.107421875	-1.5771484375E-06
0.104827880859375	0.10498046875	-1.5826416015625E-06
0.102386474609375	0.102569580078125	-1.58966064453125E-06
0.099945068359375	0.10009765625	-1.5911865234375E-06
0.097503662109375	0.097625732421875	-1.59454345703125E-06
0.095062255859375	0.09521484375	-1.59515380859375E-06
0.092620849609375	0.09283447265625	-1.60125732421875E-06
0.090179443359375	0.090362548828125	-1.605224609375E-06
0.087738037109375	0.087921142578125	-1.6070556640625E-06
0.090179443359375	0.09039306640625	-1.44683837890625E-06
0.092620849609375	0.0927734375	-1.32537841796875E-06
0.095062255859375	0.095306396484375	-1.22314453125E-06
0.097503662109375	0.097747802734375	-1.1309814453125E-06
0.099945068359375	0.10015869140625	-1.0504150390625E-06
