Potential applied (V)	WE(1).Potential (V)	WE(1).Current (A)
0.102386474609375	0.10272216796875	7.11059570312506E-06
0.104827880859375	0.105316162109375	7.08007812499994E-06
0.107269287109375	0.107635498046875	7.11059570312506E-06
0.109710693359375	0.110076904296875	7.14111328125003E-06
0.112152099609375	0.112518310546875	3.87573242187494E-07
0.114593505859375	0.114990234375	4.24194335937503E-07
0.117034912109375	0.117523193359375	4.57763671875E-07
0.119476318359375	0.119903564453125	4.91333007812497E-07
0.121917724609375	0.1224365234375	5.15747070312503E-07
0.124359130859375	0.12481689453125	5.59387207031251E-07
0.126800537109375	0.12725830078125	5.859375E-07
0.129241943359375	0.129669189453125	6.0699462890625E-07
0.131683349609375	0.132110595703125	6.35681152343751E-07
0.134124755859375	0.13458251953125	6.56738281249999E-07
0.136566162109375	0.137054443359375	6.976318359375E-07
0.139007568359375	0.139434814453125	7.159423828125E-07
0.141448974609375	0.141937255859375	7.366943359375E-07
0.143890380859375	0.1444091796875	7.5775146484375E-07
0.146331787109375	0.14678955078125	7.763671875E-07
0.148773193359375	0.149200439453125	7.9254150390625E-07
0.151214599609375	0.151763916015625	8.0230712890625E-07
0.153656005859375	0.154205322265625	8.28857421875E-07
0.156097412109375	0.15679931640625	8.447265625E-07
0.158538818359375	0.1591796875	8.6273193359375E-07
0.160980224609375	0.161651611328125	8.7310791015625E-07
0.163421630859375	0.16400146484375	8.88671875E-07
0.165863037109375	0.166534423828125	9.0972900390625E-07
0.168304443359375	0.1689453125	9.27734375E-07
0.170745849609375	0.17132568359375	9.417724609375E-07
0.173187255859375	0.173828125	9.5672607421875E-07
0.175628662109375	0.17633056640625	9.6466064453125E-07
0.178070068359375	0.178741455078125	9.77783203125E-07
0.180511474609375	0.18115234375	9.99755859375E-07
0.182952880859375	0.183685302734375	1.01470947265625E-06
0.185394287109375	0.18603515625	1.02935791015625E-06
0.187835693359375	0.18841552734375	1.0357666015625E-06
0.190277099609375	0.19085693359375	1.0516357421875E-06
0.192718505859375	0.193328857421875	1.07452392578125E-06
0.195159912109375	0.195709228515625	1.08978271484375E-06
0.197601318359375	0.1982421875	1.1053466796875E-06
0.200042724609375	0.200653076171875	1.114501953125E-06
0.202484130859375	0.20318603515625	1.13037109375E-06
0.204925537109375	0.20556640625	1.146240234375E-06
0.207366943359375	0.2080078125	1.16790771484375E-06
0.209808349609375	0.210479736328125	1.18316650390625E-06
0.212249755859375	0.21295166015625	1.19842529296875E-06
0.214691162109375	0.21533203125	1.2109375E-06
0.217132568359375	0.21771240234375	1.2255859375E-06
0.219573974609375	0.220245361328125	1.2432861328125E-06
0.222015380859375	0.222686767578125	1.26220703125E-06
0.224456787109375	0.225250244140625	1.28021240234375E-06
0.226898193359375	0.227630615234375	1.29638671875E-06
0.229339599609375	0.230010986328125	1.31591796875E-06
0.231781005859375	0.232452392578125	1.33392333984375E-06
0.234222412109375	0.234893798828125	1.35345458984375E-06
0.236663818359375	0.23736572265625	1.37603759765625E-06
0.239105224609375	0.23980712890625	1.39556884765625E-06
0.241546630859375	0.242279052734375	1.41693115234375E-06
0.243988037109375	0.244781494140625	1.4361572265625E-06
0.246429443359375	0.247161865234375	1.46209716796875E-06
0.248870849609375	0.249664306640625	1.48345947265625E-06
0.251312255859375	0.2520751953125	1.5045166015625E-06
0.253753662109375	0.2545166015625	1.53106689453125E-06
0.256195068359375	0.256927490234375	1.55426025390625E-06
0.258636474609375	0.259368896484375	1.5777587890625E-06
0.261077880859375	0.261810302734375	1.60369873046875E-06
0.263519287109375	0.264373779296875	1.63177490234375E-06
0.265960693359375	0.26666259765625	1.65618896484375E-06
0.268402099609375	0.269195556640625	1.6839599609375E-06
0.270843505859375	0.2716064453125	1.7120361328125E-06
0.273284912109375	0.274078369140625	1.73980712890625E-06
0.275726318359375	0.2764892578125	1.76971435546875E-06
0.278167724609375	0.278961181640625	1.8017578125E-06
0.280609130859375	0.28143310546875	1.8341064453125E-06
0.283050537109375	0.2838134765625	1.86614990234375E-06
0.285491943359375	0.286376953125	1.9000244140625E-06
0.287933349609375	0.28875732421875	1.9329833984375E-06
0.290374755859375	0.29119873046875	1.97509765625E-06
0.292816162109375	0.29364013671875	2.01019287109375E-06
0.295257568359375	0.296051025390625	2.04345703125E-06
0.297698974609375	0.29852294921875	2.081298828125E-06
0.300140380859375	0.301025390625	2.122802734375E-06
0.302581787109375	0.303436279296875	2.1551513671875E-06
0.305023193359375	0.305877685546875	2.19329833984375E-06
0.307464599609375	0.308380126953125	2.235107421875E-06
0.309906005859375	0.310821533203125	2.2821044921875E-06
0.312347412109375	0.313232421875	2.3284912109375E-06
0.314788818359375	0.315643310546875	2.371826171875E-06
0.317230224609375	0.318115234375	2.4176025390625E-06
0.319671630859375	0.32061767578125	2.4615478515625E-06
0.322113037109375	0.323089599609375	2.49908447265625E-06
0.324554443359375	0.32550048828125	2.5433349609375E-06
0.326995849609375	0.327911376953125	2.5946044921875E-06
0.329437255859375	0.330413818359375	2.64862060546875E-06
0.331878662109375	0.332855224609375	2.70294189453125E-06
0.334320068359375	0.33526611328125	2.7484130859375E-06
0.336761474609375	0.337738037109375	2.802734375E-06
0.339202880859375	0.34027099609375	2.85400390625E-06
0.341644287109375	0.34271240234375	2.906494140625E-06
0.344085693359375	0.345123291015625	2.947998046875E-06
0.346527099609375	0.347503662109375	3.0023193359375E-06
0.348968505859375	0.3499755859375	3.0572509765625E-06
0.351409912109375	0.352386474609375	3.1146240234375E-06
0.353851318359375	0.354949951171875	3.1707763671875E-06
0.356292724609375	0.3572998046875	3.23211669921875E-06
0.358734130859375	0.35986328125	3.29010009765625E-06
0.361175537109375	0.362274169921875	3.34716796875E-06
0.363616943359375	0.36468505859375	3.4100341796875E-06
0.366058349609375	0.3671875	3.470458984375E-06
0.368499755859375	0.36962890625	3.53179931640625E-06
0.370941162109375	0.3720703125	3.5888671875E-06
0.373382568359375	0.37451171875	3.643798828125E-06
0.375823974609375	0.376953125	3.7066650390625E-06
0.378265380859375	0.379486083984375	3.76495361328125E-06
0.380706787109375	0.381927490234375	3.826904296875E-06
0.383148193359375	0.38427734375	3.88763427734375E-06
0.385589599609375	0.38677978515625	3.95050048828125E-06
0.388031005859375	0.3892822265625	4.01580810546875E-06
0.390472412109375	0.39166259765625	4.0777587890625E-06
0.392913818359375	0.394134521484375	4.14215087890625E-06
0.395355224609375	0.3966064453125	4.205322265625E-06
0.397796630859375	0.399139404296875	4.2669677734375E-06
0.400238037109375	0.4014892578125	4.3304443359375E-06
0.402679443359375	0.40399169921875	4.38873291015625E-06
0.405120849609375	0.4063720703125	4.456787109375E-06
0.407562255859375	0.40887451171875	4.52423095703125E-06
0.410003662109375	0.411376953125	4.58984375E-06
0.412445068359375	0.41375732421875	4.6502685546875E-06
0.414886474609375	0.416168212890625	4.71710205078125E-06
0.417327880859375	0.418701171875	4.7845458984375E-06
0.419769287109375	0.421112060546875	4.8565673828125E-06
0.422210693359375	0.423583984375	4.915771484375E-06
0.424652099609375	0.426055908203125	4.984130859375E-06
0.427093505859375	0.428497314453125	5.052490234375E-06
0.429534912109375	0.43096923828125	5.1165771484375E-06
0.431976318359375	0.433349609375	5.18951416015625E-06
0.434417724609375	0.435882568359375	5.257568359375E-06
0.436859130859375	0.4383544921875	5.32745361328125E-06
0.439300537109375	0.44073486328125	5.40191650390625E-06
0.441741943359375	0.4432373046875	5.47149658203125E-06
0.444183349609375	0.445648193359375	5.5413818359375E-06
0.446624755859375	0.448150634765625	5.61431884765625E-06
0.449066162109375	0.450592041015625	5.6903076171875E-06
0.451507568359375	0.45306396484375	5.76263427734375E-06
0.453948974609375	0.4554443359375	5.833740234375E-06
0.456390380859375	0.457977294921875	5.91552734375E-06
0.458831787109375	0.460418701171875	5.9930419921875E-06
0.461273193359375	0.462799072265625	6.06964111328125E-06
0.463714599609375	0.46435546875	6.1492919921875E-06
0.466156005859375	0.466827392578125	6.2347412109375E-06
0.468597412109375	0.4693603515625	6.3201904296875E-06
0.471038818359375	0.471710205078125	6.4056396484375E-06
0.473480224609375	0.47418212890625	6.4910888671875E-06
0.475921630859375	0.47674560546875	6.585693359375E-06
0.478363037109375	0.47906494140625	6.67724609375E-06
0.480804443359375	0.48150634765625	6.7718505859375E-06
0.483245849609375	0.483978271484375	6.8634033203125E-06
0.485687255859375	0.486358642578125	6.9610595703125E-06
0.488128662109375	0.488861083984375	7.061767578125E-06
0.490570068359375	0.491302490234375	7.159423828125E-06
0.493011474609375	0.493743896484375	7.2601318359375E-06
0.495452880859375	0.496246337890625	7.3760986328125E-06
0.497894287109375	0.49871826171875	7.489013671875E-06
0.500335693359375	0.501068115234375	7.6019287109375E-06
0.502777099609375	0.50347900390625	7.7178955078125E-06
0.505218505859375	0.505950927734375	7.84912109375E-06
0.507659912109375	0.508331298828125	7.977294921875E-06
0.510101318359375	0.510772705078125	8.111572265625E-06
0.512542724609375	0.5133056640625	8.2611083984375E-06
0.514984130859375	0.51568603515625	8.4136962890625E-06
0.517425537109375	0.51812744140625	8.5662841796875E-06
0.519866943359375	0.52056884765625	8.734130859375E-06
0.522308349609375	0.5230712890625	8.9111328125E-06
0.524749755859375	0.5255126953125	9.09423828125E-06
0.527191162109375	0.527923583984375	9.28955078125E-06
0.529632568359375	0.5303955078125	9.490966796875E-06
0.532073974609375	0.532806396484375	9.716796875E-06
0.534515380859375	0.535369873046875	9.9639892578125E-06
0.536956787109375	0.537750244140625	1.02294921875E-05
0.539398193359375	0.540191650390625	1.0498046875E-05
0.541839599609375	0.542694091796875	1.08001708984375E-05
0.544281005859375	0.5450439453125	1.112060546875E-05
0.546722412109375	0.547515869140625	1.1474609375E-05
0.549163818359375	0.550048828125	1.18499755859375E-05
0.551605224609375	0.55242919921875	1.22650146484375E-05
0.554046630859375	0.55487060546875	1.27044677734375E-05
0.556488037109375	0.557342529296875	1.31866455078125E-05
0.558929443359375	0.559814453125	1.36993408203125E-05
0.561370849609375	0.562255859375	1.4263916015625E-05
0.563812255859375	0.564666748046875	1.48681640625E-05
0.566253662109375	0.567169189453125	1.55303955078125E-05
0.568695068359375	0.569580078125	1.62384033203125E-05
0.571136474609375	0.571990966796875	1.70196533203125E-05
0.573577880859375	0.574554443359375	1.78924560546875E-05
0.576019287109375	0.57696533203125	1.88201904296875E-05
0.578460693359375	0.57940673828125	1.98028564453125E-05
0.580902099609375	0.581878662109375	2.08953857421875E-05
0.583343505859375	0.58428955078125	2.20733642578125E-05
0.585784912109375	0.58673095703125	2.3358154296875E-05
0.588226318359375	0.589263916015625	2.47772216796875E-05
0.590667724609375	0.591705322265625	2.63153076171875E-05
0.593109130859375	0.59423828125	2.79754638671875E-05
0.595550537109375	0.596710205078125	2.97821044921875E-05
0.597991943359375	0.5992431640625	3.1744384765625E-05
0.600433349609375	0.601715087890625	3.389892578125E-05
0.602874755859375	0.60418701171875	3.6224365234375E-05
0.605316162109375	0.606658935546875	3.87908935546875E-05
0.607757568359375	0.60906982421875	4.1510009765625E-05
0.610198974609375	0.611602783203125	4.45220947265625E-05
0.612640380859375	0.61407470703125	4.786376953125E-05
0.615081787109375	0.616607666015625	5.14556884765625E-05
0.617523193359375	0.619049072265625	5.53131103515625E-05
0.619964599609375	0.62158203125	5.9552001953125E-05
0.622406005859375	0.624114990234375	6.41693115234375E-05
0.624847412109375	0.625701904296875	6.92138671875E-05
0.627288818359375	0.628082275390625	7.4676513671875E-05
0.629730224609375	0.63055419921875	8.062744140625E-05
0.632171630859375	0.632965087890625	8.7066650390625E-05
0.634613037109375	0.635467529296875	9.3994140625E-05
0.637054443359375	0.63800048828125	0.0001014404296875
0.639495849609375	0.640411376953125	0.000109466552734375
0.641937255859375	0.642822265625	0.000118011474609375
0.644378662109375	0.645233154296875	0.000127227783203125
0.646820068359375	0.647705078125	0.000136932373046875
0.649261474609375	0.650115966796875	0.0001473388671875
0.651702880859375	0.652618408203125	0.000158660888671875
0.654144287109375	0.655181884765625	0.00017047119140625
0.656585693359375	0.65753173828125	0.000182769775390625
0.659027099609375	0.660064697265625	0.0001959228515625
0.661468505859375	0.662506103515625	0.0002098388671875
0.663909912109375	0.6649169921875	0.0002244873046875
0.666351318359375	0.66741943359375	0.0002398681640625
0.668792724609375	0.669952392578125	0.000256134033203125
0.671234130859375	0.67236328125	0.000273101806640625
0.673675537109375	0.674835205078125	0.000290924072265625
0.676116943359375	0.677337646484375	0.000309417724609375
0.678558349609375	0.679718017578125	0.000328826904296875
0.680999755859375	0.682281494140625	0.000349029541015625
0.683441162109375	0.68475341796875	0.000370086669921875
0.685882568359375	0.687225341796875	0.000391693115234375
0.688323974609375	0.689666748046875	0.0004144287109375
0.690765380859375	0.69219970703125	0.0004384765625
0.693206787109375	0.694671630859375	0.0004630126953125
0.695648193359375	0.6971435546875	0.00048797607421875
0.698089599609375	0.699615478515625	0.000515045166015625
0.700531005859375	0.702056884765625	0.00054132080078125
0.702972412109375	0.70458984375	0.000569854736328125
0.705413818359375	0.707122802734375	0.00059906005859375
0.707855224609375	0.709564208984375	0.00062933349609375
0.710296630859375	0.71112060546875	0.00066070556640625
0.712738037109375	0.71337890625	0.00069305419921875
0.715179443359375	0.716033935546875	0.0007257080078125
0.717620849609375	0.718536376953125	0.0007598876953125
0.720062255859375	0.72088623046875	0.0007940673828125
0.722503662109375	0.723388671875	0.0008294677734375
0.724945068359375	0.725250244140625	0.0008660888671875
0.727386474609375	0.728271484375	0.00090301513671875
0.729827880859375	0.73077392578125	0.0009417724609375
0.732269287109375	0.733184814453125	0.0009808349609375
0.734710693359375	0.73553466796875	0.00102020263671875
0.737152099609375	0.73822021484375	0.001060791015625
0.739593505859375	0.740447998046875	0.001102294921875
0.742034912109375	0.742828369140625	0.00114471435546875
0.744476318359375	0.74542236328125	0.001187744140625
0.746917724609375	0.747833251953125	0.001231689453125
0.749359130859375	0.750732421875	0.0012762451171875
0.751800537109375	0.75286865234375	0.00132232666015625
0.754241943359375	0.75408935546875	0.00136688232421875
0.756683349609375	0.75714111328125	0.00141448974609375
0.759124755859375	0.75897216796875	0.00146209716796875
0.761566162109375	0.76202392578125	0.0015093994140625
0.764007568359375	0.7647705078125	0.00155731201171875
0.766448974609375	0.76751708984375	0.0016064453125
0.768890380859375	0.76995849609375	0.001654052734375
0.771331787109375	0.77178955078125	0.0017059326171875
0.773773193359375	0.7745361328125	0.00175567626953125
0.776214599609375	0.77667236328125	0.00180572509765625
0.778656005859375	0.7794189453125	0.0018572998046875
0.781097412109375	0.7818603515625	0.0019091796875
0.783538818359375	0.78460693359375	0.001961669921875
0.785980224609375	0.7867431640625	0.00201324462890625
0.788421630859375	0.78887939453125	0.00206634521484375
0.790863037109375	0.79132080078125	0.00212066650390625
0.793304443359375	0.79376220703125	0.00217315673828125
0.795745849609375	0.7965087890625	0.0022265625
0.798187255859375	0.7989501953125	0.0022808837890625
0.800628662109375	0.80230712890625	0.00233245849609375
0.798187255859375	0.7989501953125	0.00225921630859375
0.795745849609375	0.7958984375	0.00218536376953125
0.793304443359375	0.79345703125	0.0021136474609375
0.790863037109375	0.79132080078125	0.00204498291015625
0.788421630859375	0.7891845703125	0.0019781494140625
0.785980224609375	0.787353515625	0.00191253662109375
0.783538818359375	0.78399658203125	0.00184906005859375
0.781097412109375	0.78155517578125	0.00178741455078125
0.778656005859375	0.77880859375	0.00172760009765625
0.776214599609375	0.7769775390625	0.00166900634765625
0.773773193359375	0.7745361328125	0.0016131591796875
0.771331787109375	0.7720947265625	0.001558837890625
0.768890380859375	0.7696533203125	0.001505126953125
0.766448974609375	0.76690673828125	0.00145263671875
0.764007568359375	0.7647705078125	0.00140228271484375
0.761566162109375	0.76263427734375	0.001353759765625
0.759124755859375	0.760498046875	0.00130615234375
0.756683349609375	0.75775146484375	0.00126007080078125
0.754241943359375	0.75469970703125	0.001214599609375
0.751800537109375	0.7525634765625	0.00117095947265625
0.749359130859375	0.74981689453125	0.0011285400390625
0.746917724609375	0.74786376953125	0.0010870361328125
0.744476318359375	0.745452880859375	0.00104644775390625
0.742034912109375	0.742919921875	0.00100738525390625
0.739593505859375	0.740509033203125	0.00096954345703125
0.737152099609375	0.737945556640625	0.0009326171875
0.734710693359375	0.735565185546875	0.0008966064453125
0.732269287109375	0.733184814453125	0.00086273193359375
0.729827880859375	0.730743408203125	0.000828857421875
0.727386474609375	0.728271484375	0.0007958984375
0.724945068359375	0.725830078125	0.00076446533203125
0.722503662109375	0.723358154296875	0.0007342529296875
0.720062255859375	0.720916748046875	0.00070465087890625
0.717620849609375	0.718414306640625	0.00067596435546875
0.715179443359375	0.71600341796875	0.00064788818359375
0.712738037109375	0.713531494140625	0.00062103271484375
0.710296630859375	0.71112060546875	0.0005950927734375
0.707855224609375	0.7086181640625	0.00056976318359375
0.705413818359375	0.706207275390625	0.00054534912109375
0.702972412109375	0.703765869140625	0.00052154541015625
0.700531005859375	0.701385498046875	0.0004986572265625
0.698089599609375	0.698822021484375	0.00047662353515625
0.695648193359375	0.696441650390625	0.000455322265625
0.693206787109375	0.694000244140625	0.00043505859375
0.690765380859375	0.691619873046875	0.000415252685546875
0.688323974609375	0.689727783203125	0.00039569091796875
0.685882568359375	0.6871337890625	0.00037725830078125
0.683441162109375	0.68475341796875	0.0003597412109375
0.680999755859375	0.682281494140625	0.000342559814453125
0.678558349609375	0.6798095703125	0.0003260498046875
0.676116943359375	0.67730712890625	0.00031011962890625
0.673675537109375	0.67486572265625	0.000294830322265625
0.671234130859375	0.67242431640625	0.00028009033203125
0.668792724609375	0.669891357421875	0.000265899658203125
0.666351318359375	0.66741943359375	0.00025213623046875
0.663909912109375	0.66497802734375	0.000239013671875
0.661468505859375	0.66253662109375	0.000226348876953125
0.659027099609375	0.660003662109375	0.0002142333984375
0.656585693359375	0.65753173828125	0.00020257568359375
0.654144287109375	0.6551513671875	0.000191497802734375
0.651702880859375	0.6527099609375	0.0001807861328125
0.649261474609375	0.65020751953125	0.0001702880859375
0.646820068359375	0.647705078125	0.000160400390625
0.644378662109375	0.64532470703125	0.000150970458984375
0.641937255859375	0.642822265625	0.000141876220703125
0.639495849609375	0.640472412109375	0.0001331787109375
0.637054443359375	0.63800048828125	0.0001248779296875
0.634613037109375	0.63555908203125	0.000116943359375
0.632171630859375	0.63311767578125	0.00010931396484375
0.629730224609375	0.630584716796875	0.000102081298828125
0.627288818359375	0.628082275390625	9.5184326171875E-05
0.624847412109375	0.6256103515625	8.8623046875E-05
0.622406005859375	0.623199462890625	8.2427978515625E-05
0.619964599609375	0.6207275390625	7.65380859375E-05
0.617523193359375	0.6182861328125	7.1014404296875E-05
0.615081787109375	0.6158447265625	6.5826416015625E-05
0.612640380859375	0.61346435546875	6.09130859375E-05
0.610198974609375	0.610870361328125	5.6182861328125E-05
