Potential applied (V)	WE(1).Current (A)	V vs. RHE	j
		V	mA/cm\+(2)
-0.7025146484375	-8.1512451171875E-7	0.323571350878906	-0.00718804684055335
-0.7049560546875	-1.97509765625E-6	0.32113848203125	-0.0174170869157848
-0.7073974609375	-2.8106689453125E-6	0.318703225585937	-0.0247854404348545
-0.7098388671875	-3.631591796875E-6	0.316267861328125	-0.0320246190200617
-0.7122802734375	-4.3060302734375E-6	0.313831418945312	-0.0379720482666446
-0.7147216796875	-4.931640625E-6	0.3113946171875	-0.0434888944003527
-0.7171630859375	-5.7159423828125E-6	0.308958983398437	-0.0504051356509039
-0.7196044921875	-6.231689453125E-6	0.306521373046875	-0.0549531697806437
-0.7220458984375	-6.732177734375E-6	0.304083650390625	-0.0593666466876102
-0.7244873046875	-7.2418212890625E-6	0.301645995117187	-0.0638608579282407
-0.7269287109375	-7.879638671875E-6	0.299209283203125	-0.0694853498401675
-0.7293701171875	-8.2855224609375E-6	0.296770864257812	-0.0730645719659392
-0.7318115234375	-8.6700439453125E-6	0.294332288085937	-0.0764554139798281
-0.7342529296875	-9.0606689453125E-6	0.291893756835937	-0.0799000788828263
-0.7366943359375	-9.5062255859375E-6	0.289455629882812	-0.0838291497878086
-0.7391357421875	-9.747314453125E-6	0.287015998046875	-0.0859551539076279
-0.7415771484375	-1.02020263671875E-5	0.284577938476562	-0.0899649591462743
-0.7440185546875	-1.04217529296875E-5	0.282138149414062	-0.0919025831542108
-0.7464599609375	-1.08734130859375E-5	0.279700067382812	-0.0958854769483025
-0.7489013671875	-1.10870361328125E-5	0.277260233398437	-0.0977692780671296
-0.7513427734375	-1.13739013671875E-5	0.274820938476562	-0.100298953855269
-0.7537841796875	-1.17156982421875E-5	0.272382047851562	-0.103313035645392
-0.7562255859375	-1.19873046875E-5	0.269942640625	-0.105708154210758
-0.7586669921875	-1.23870849609375E-5	0.267504176757812	-0.109233553447421
-0.7611083984375	-1.25457763671875E-5	0.265063938476562	-0.110632948564264
-0.7635498046875	-1.2701416015625E-5	0.262623677734375	-0.112005432236552
-0.7659912109375	-1.319580078125E-5	0.26018591015625	-0.116365086254409
-0.7684326171875	-1.3287353515625E-5	0.257745177734375	-0.117172429591049
-0.7708740234375	-1.35498046875E-5	0.255305703125	-0.119486813822751
-0.7733154296875	-1.37115478515625E-5	0.252865487304687	-0.120913120384149
-0.7757568359375	-1.4044189453125E-5	0.250426529296875	-0.123846467840608
-0.7781982421875	-1.4276123046875E-5	0.247986830078125	-0.125891737626764
-0.7806396484375	-1.4410400390625E-5	0.245546412109375	-0.127075841187169
-0.7830810546875	-1.47064208984375E-5	0.243107184570312	-0.129686251308973
-0.7855224609375	-1.47918701171875E-5	0.240666407226562	-0.130439771756504
-0.7879638671875	-1.50054931640625E-5	0.238226573242187	-0.132323572875331
-0.7904052734375	-1.53717041015625E-5	0.235787862304687	-0.135552946221892
-0.7928466796875	-1.544189453125E-5	0.23334697265625	-0.136171909446649
-0.7952880859375	-1.56982421875E-5	0.230907453125	-0.138432470789242
-0.7977294921875	-1.591796875E-5	0.2284676640625	-0.140370094797178
-0.8001708984375	-1.60797119140625E-5	0.226027448242187	-0.141796401358576
-0.8026123046875	-1.62200927734375E-5	0.223587075195312	-0.143034327808091
-0.8050537109375	-1.63543701171875E-5	0.221146657226562	-0.144218431368496
-0.8074951171875	-1.66168212890625E-5	0.218707182617187	-0.146532815600198
-0.8099365234375	-1.685791015625E-5	0.21626755078125	-0.148658819720018
-0.8123779296875	-1.68853759765625E-5	0.213826346679687	-0.14890102272101
-0.8148193359375	-1.72027587890625E-5	0.211387276367187	-0.151699812954696
-0.8172607421875	-1.7333984375E-5	0.2089468359375	-0.152857005070547
-0.8197021484375	-1.74713134765625E-5	0.206506440429687	-0.154068020075507
-0.8221435546875	-1.7584228515625E-5	0.204065865234375	-0.15506374352403
-0.8245849609375	-1.78466796875E-5	0.201626390625	-0.157378127755732
-0.8270263671875	-1.79962158203125E-5	0.199186084960937	-0.158696788538911
-0.8294677734375	-1.81640625E-5	0.1967459140625	-0.160176917989418
-0.8319091796875	-1.834716796875E-5	0.19430585546875	-0.161791604662698
-0.8343505859375	-1.846923828125E-5	0.19186534765625	-0.162868062444885
-0.8367919921875	-1.86859130859375E-5	0.189425536132812	-0.164778775008267
-0.8392333984375	-1.8707275390625E-5	0.186984287109375	-0.16496715512015
-0.8416748046875	-1.8963623046875E-5	0.184544767578125	-0.167227716462743
-0.8441162109375	-1.910400390625E-5	0.18210439453125	-0.168465642912257
-0.8465576171875	-1.92291259765625E-5	0.179663909179687	-0.169569012138999
-0.8489990234375	-1.937255859375E-5	0.17722355859375	-0.170833850033069
-0.8514404296875	-1.96502685546875E-5	0.174784196289062	-0.173282791487544
-0.8538818359375	-1.968994140625E-5	0.17234308203125	-0.173632640266755
-0.8563232421875	-1.98883056640625E-5	0.169903135742187	-0.175381884162809
-0.8587646484375	-2.0062255859375E-5	0.167463009765625	-0.176915836502425
-0.8612060546875	-2.021484375E-5	0.1650227265625	-0.178261408730159
-0.8636474609375	-2.0257568359375E-5	0.162581634765625	-0.178638168953924
-0.8660888671875	-2.05413818359375E-5	0.160142317382812	-0.181140933297509
-0.8685302734375	-2.0758056640625E-5	0.157702505859375	-0.183051645860891
-0.8709716796875	-2.0703125E-5	0.1552606953125	-0.182567239858907
-0.8734130859375	-2.100830078125E-5	0.15282153515625	-0.185258384314374
-0.8758544921875	-2.1099853515625E-5	0.150380802734375	-0.186065727651014
-0.8782958984375	-2.12615966796875E-5	0.147940586914062	-0.187492034212412
-0.8807373046875	-2.1417236328125E-5	0.145500326171875	-0.1888645178847
-0.8831787109375	-2.15118408203125E-5	0.143059616210937	-0.189698772665895
-0.8856201171875	-2.177734375E-5	0.1406201640625	-0.192040068342152
-0.8880615234375	-2.17987060546875E-5	0.138178915039062	-0.192228448454034
-0.8905029296875	-2.1978759765625E-5	0.135738833984375	-0.19381622368276
-0.8929443359375	-2.203369140625E-5	0.13329783203125	-0.194300629684744
-0.8953857421875	-2.22259521484375E-5	0.130857840820312	-0.195996050691689
-0.8978271484375	-2.24090576171875E-5	0.128417782226562	-0.197610737364969
-0.9002685546875	-2.24761962890625E-5	0.125976870117187	-0.198202789145172
-0.9027099609375	-2.264404296875E-5	0.12353669921875	-0.199682918595679
-0.9051513671875	-2.26806640625E-5	0.1210955625	-0.200005855930335
-0.9075927734375	-2.2869873046875E-5	0.118655548828125	-0.201674365492725
-0.9100341796875	-2.30224609375E-5	0.116215265625	-0.203019937720459
-0.9124755859375	-2.31903076171875E-5	0.113775094726562	-0.204500067170966
-0.9149169921875	-2.33734130859375E-5	0.111335036132812	-0.206114753844246
-0.9173583984375	-2.33489990234375E-5	0.108893450195312	-0.205899462287809
-0.9197998046875	-2.35107421875E-5	0.106453234375	-0.207325768849206
-0.9222412109375	-2.35687255859375E-5	0.104012254882812	-0.207837086295745
-0.9246826171875	-2.3681640625E-5	0.1015716796875	-0.208832809744268
-0.9271240234375	-2.38067626953125E-5	0.0991311943359374	-0.20993617897101
-0.9295654296875	-2.39776611328125E-5	0.0966910458984374	-0.211443219866071
-0.9320068359375	-2.4114990234375E-5	0.0942506503906249	-0.212654234871032
-0.9344482421875	-2.4273681640625E-5	0.0918104121093749	-0.214053629987875
-0.9368896484375	-2.44110107421875E-5	0.0893700166015624	-0.215264644992835
-0.9393310546875	-2.44873046875E-5	0.0869291718749999	-0.215937431106702
-0.9417724609375	-2.4700927734375E-5	0.0844893378906248	-0.217821232225529
-0.9442138671875	-2.47589111328125E-5	0.0820483583984374	-0.218332549672068
-0.9466552734375	-2.48443603515625E-5	0.0796075810546873	-0.219086070119599
-0.9490966796875	-2.49908447265625E-5	0.0771672529296874	-0.220377819458223
-0.9515380859375	-2.51434326171875E-5	0.0747269697265623	-0.221723391685957
-0.9539794921875	-2.52593994140625E-5	0.0722864169921874	-0.222746026579034
-0.9564208984375	-2.53387451171875E-5	0.0698455947265624	-0.223445724137456
-0.9588623046875	-2.53570556640625E-5	0.0674043232421874	-0.223607192804784
-0.9613037109375	-2.5457763671875E-5	0.0649636582031249	-0.224495270475088
-0.9637451171875	-2.56591796875E-5	0.0625237343749999	-0.226271425815697
-0.9661865234375	-2.5823974609375E-5	0.0600835410156249	-0.227724643821649
-0.9686279296875	-2.59307861328125E-5	0.0576429208984374	-0.228666544381063
-0.9710693359375	-2.60589599609375E-5	0.0552024580078124	-0.229796825052359
-0.9735107421875	-2.61322021484375E-5	0.0527615908203124	-0.230442699721671
-0.9759521484375	-2.62725830078125E-5	0.0503212177734373	-0.231680626171186
-0.9783935546875	-2.6318359375E-5	0.0478801484374999	-0.232084297839506
-0.9808349609375	-2.647705078125E-5	0.0454399101562499	-0.233483692956349
-0.9832763671875	-2.642822265625E-5	0.0429981445312498	-0.233053109843474
-0.9857177734375	-2.6641845703125E-5	0.0405583105468749	-0.234936910962302
-0.9881591796875	-2.6715087890625E-5	0.0381174433593748	-0.235582785631614
-0.9906005859375	-2.681884765625E-5	0.0356768007812499	-0.236497774746473
-0.9930419921875	-2.69683837890625E-5	0.0332364951171874	-0.237816435529652
-0.9954833984375	-2.69134521484375E-5	0.0307946845703124	-0.237332029527668
-0.9979248046875	-2.72003173828125E-5	0.0283553896484374	-0.239861705315807
-1.0003662109375	-2.7203369140625E-5	0.025914005859375	-0.239888616760362
-1.0028076171875	-2.74261474609375E-5	0.0234742392578124	-0.241853152212853
-1.0052490234375	-2.75238037109375E-5	0.0210335517578124	-0.242714318438602
-1.0076904296875	-2.75970458984375E-5	0.0185926845703124	-0.243360193107914
-1.0101318359375	-2.77740478515625E-5	0.0161525810546874	-0.244921056892086
-1.0125732421875	-2.77099609375E-5	0.0137107031249999	-0.244355916556437
-1.0150146484375	-2.79449462890625E-5	0.0112710263671874	-0.246428097787147
-1.0174560546875	-2.794189453125E-5	0.0088295976562498	-0.246401186342593
-1.0198974609375	-2.80731201171875E-5	0.00638915722656241	-0.247558378458444
-1.0223388671875	-2.8173828125E-5	0.00394849218749993	-0.248446456128748
-1.0247802734375	-2.83905029296875E-5	0.00150868066406229	-0.25035716869213
-1.0272216796875	-2.82684326171875E-5	-9.33624023437663E-4	-0.249280710909943
-1.0296630859375	-2.84576416015625E-5	-0.00337363769531263	-0.250949220472332
-1.0321044921875	-2.8497314453125E-5	-0.00581475195312509	-0.251299069251543
-1.0345458984375	-2.8704833984375E-5	-0.00825463085937517	-0.253129047481261
-1.0369873046875	-2.87384033203125E-5	-0.0106957900390625	-0.253425073371362
-1.0394287109375	-2.88299560546875E-5	-0.0131365224609377	-0.254232416708003
-1.0418701171875	-2.90863037109375E-5	-0.0155760419921875	-0.256492978050595
-1.0443115234375	-2.9156494140625E-5	-0.0180169316406251	-0.257111941275353
-1.0467529296875	-2.9351806640625E-5	-0.0204569003906252	-0.258834273726852
-1.0491943359375	-2.94647216796875E-5	-0.0228974755859377	-0.259829997175375
-1.0516357421875	-2.9730224609375E-5	-0.0253369277343751	-0.262171292851631
-1.0540771484375	-2.97607421875E-5	-0.027778109375	-0.262440407297178
-1.0565185546875	-3.009033203125E-5	-0.0302170898437502	-0.265346843309083
-1.0589599609375	-3.0108642578125E-5	-0.0326583613281251	-0.265508311976411
-1.0614013671875	-3.04718017578125E-5	-0.0350970947265625	-0.268710773878417
-1.0638427734375	-3.04351806640625E-5	-0.0375387705078125	-0.268387836543761
-1.0662841796875	-3.06915283203125E-5	-0.0399782900390626	-0.270648397886354
-1.0687255859375	-3.09051513671875E-5	-0.0424181240234376	-0.272532199005181
-1.0711669921875	-3.10577392578125E-5	-0.0448584072265625	-0.273877771232914
-1.0736083984375	-3.1219482421875E-5	-0.047298623046875	-0.275304077794312
-1.0760498046875	-3.1414794921875E-5	-0.0497385917968751	-0.277026410245811
-1.0784912109375	-3.1756591796875E-5	-0.052177482421875	-0.280040492035935
-1.0809326171875	-3.18359375E-5	-0.0546183046875002	-0.280740189594356
-1.0833740234375	-3.2159423828125E-5	-0.0570573300781252	-0.283592802717152
-1.0858154296875	-3.2415771484375E-5	-0.0594968496093751	-0.285853364059744
-1.0882568359375	-3.27178955078125E-5	-0.0619360322265625	-0.288517597070657
-1.0906982421875	-3.29437255859375E-5	-0.0643757763671877	-0.290509043967703
-1.0931396484375	-3.3380126953125E-5	-0.0668139707031252	-0.294357380539021
-1.0955810546875	-3.36273193359375E-5	-0.0692535576171875	-0.29653720754795
-1.0980224609375	-3.39813232421875E-5	-0.0716923583984377	-0.299658935116292
-1.1004638671875	-3.4246826171875E-5	-0.0741318105468751	-0.302000230792549
-1.1029052734375	-3.46710205078125E-5	-0.0765700947265626	-0.305740921585648
-1.1053466796875	-3.50982666015625E-5	-0.0790083564453126	-0.309508523823302
-1.1077880859375	-3.5235595703125E-5	-0.0814487519531251	-0.310719538828263
-1.1102294921875	-3.57177734375E-5	-0.0838866093750001	-0.314971547067901
-1.1126708984375	-3.60321044921875E-5	-0.0863257021484376	-0.317743425857033
-1.1151123046875	-3.6431884765625E-5	-0.0887641660156251	-0.321268825093695
-1.1175537109375	-3.67889404296875E-5	-0.0912029443359377	-0.324417464106592
-1.1199951171875	-3.72314453125E-5	-0.0936410937500001	-0.328319623567019
-1.1224365234375	-3.748779296875E-5	-0.0960806132812502	-0.330580184909612
-1.1248779296875	-3.78692626953125E-5	-0.0985192119140625	-0.333944115478946
-1.1273193359375	-3.83392333984375E-5	-0.100957159179688	-0.338088477940366
-1.1297607421875	-3.890380859375E-5	-0.10339441015625	-0.343067095182981
-1.1322021484375	-3.91998291015625E-5	-0.105833637695313	-0.345677505304784
-1.1346435546875	-3.96270751953125E-5	-0.108271899414063	-0.349445107542438
-1.1370849609375	-4.00543212890625E-5	-0.110710161132813	-0.353212709780093
-1.1395263671875	-4.05364990234375E-5	-0.113148018554688	-0.357464718019731
-1.1419677734375	-4.1143798828125E-5	-0.115584955078125	-0.362820095486111
-1.1444091796875	-4.1619873046875E-5	-0.118022857421875	-0.36701828083664
-1.1468505859375	-4.21875E-5	-0.1204600859375	-0.37202380952381
-1.1492919921875	-4.27490234375E-5	-0.122897359375	-0.376975515321869
-1.1517333984375	-4.34967041015625E-5	-0.125333262695313	-0.383568819237765
-1.1541748046875	-4.4140625E-5	-0.1277699296875	-0.389247134038801
-1.1566162109375	-4.48760986328125E-5	-0.130205922851563	-0.395732792176477
-1.1590576171875	-4.5501708984375E-5	-0.132642724609375	-0.401249638310185
-1.1614990234375	-4.6124267578125E-5	-0.135079548828125	-0.406739572999339
-1.1639404296875	-4.6832275390625E-5	-0.137515744140625	-0.412983028136023
-1.1663818359375	-4.76715087890625E-5	-0.139950973632813	-0.420383675388558
-1.1688232421875	-4.8583984375E-5	-0.1423856640625	-0.428430197310406
-1.1712646484375	-4.96307373046875E-5	-0.144819366210938	-0.437660822792659
-1.1737060546875	-5.0390625E-5	-0.1472551796875	-0.444361772486772
-1.1761474609375	-5.16143798828125E-5	-0.149687579101563	-0.455153261753197
-1.1785888671875	-5.25634765625E-5	-0.152122	-0.4635227210097
-1.1810302734375	-5.37078857421875E-5	-0.154554983398438	-0.473614512717703
-1.1834716796875	-5.47515869140625E-5	-0.156988708007813	-0.482818226755401
-1.1859130859375	-5.60577392578125E-5	-0.159420500976563	-0.494336325024802
-1.1883544921875	-5.7440185546875E-5	-0.161851732421875	-0.506527209408069
-1.1907958984375	-5.865478515625E-5	-0.16428419921875	-0.517237964340829
-1.1932373046875	-6.03057861328125E-5	-0.166713454101563	-0.531797055844907
-1.1956787109375	-6.1920166015625E-5	-0.169142978515625	-0.54603321001433
-1.1981201171875	-6.3690185546875E-5	-0.171571357421875	-0.561641847856041
-1.2005615234375	-6.5338134765625E-5	-0.174000634765625	-0.576174027915564
-1.2030029296875	-6.719970703125E-5	-0.17642833984375	-0.592590009093915
-1.2054443359375	-6.9061279296875E-5	-0.178856044921875	-0.609005990272266
-1.2078857421875	-7.11669921875E-5	-0.181281953125	-0.627574887014991
-1.2103271484375	-7.31201171875E-5	-0.183708984375	-0.644798211529982
-1.2127685546875	-7.5653076171875E-5	-0.186131748046875	-0.667134710510362
-1.2152099609375	-7.781982421875E-5	-0.18855720703125	-0.68624183614418
-1.2176513671875	-8.0413818359375E-5	-0.190979521484375	-0.709116564015653
-1.2200927734375	-8.30078125E-5	-0.1934018359375	-0.731991291887125
-1.2225341796875	-8.59375E-5	-0.1958216796875	-0.757826278659612
-1.2249755859375	-8.892822265625E-5	-0.19824107421875	-0.784199494323192
-1.2274169921875	-9.210205078125E-5	-0.20065912109375	-0.812187396660053
-1.2298583984375	-9.539794921875E-5	-0.20307626953125	-0.8412517567791
-1.2322998046875	-9.912109375E-5	-0.2054902734375	-0.874083719135803
-1.2347412109375	-1.02691650390625E-4	-0.207905400390625	-0.905570109264771
-1.2371826171875	-1.0662841796875E-4	-0.21031783203125	-0.9402858727403
-1.2396240234375	-1.1090087890625E-4	-0.21272779296875	-0.977961895116843
-1.2420654296875	-1.1529541015625E-4	-0.21513685546875	-1.01671437527557
-1.2445068359375	-1.20086669921875E-4	-0.217542998046875	-1.05896534322641
-1.2469482421875	-1.25152587890625E-4	-0.219947119140625	-1.10363834118717
-1.2493896484375	-1.30157470703125E-4	-0.222351689453125	-1.14777311025683
-1.2518310546875	-1.36199951171875E-4	-0.224748623046875	-1.20105777047509
-1.2542724609375	-1.417236328125E-4	-0.227149375	-1.24976748511905
-1.2567138671875	-1.4837646484375E-4	-0.22954181640625	-1.30843443424824
-1.2591552734375	-1.54693603515625E-4	-0.231936728515625	-1.36414112447641
-1.2615966796875	-1.62109375E-4	-0.2343235546875	-1.42953593474427
-1.2640380859375	-1.6925048828125E-4	-0.23671240234375	-1.4925087150022
-1.2664794921875	-1.7742919921875E-4	-0.23909361328125	-1.56463138640873
-1.2689208984375	-1.8548583984375E-4	-0.24147572265625	-1.63567760003307
-1.2713623046875	-1.94854736328125E-4	-0.243848173828125	-1.71829573481592
-1.2738037109375	-2.03826904296875E-4	-0.246223544921875	-1.79741538180666
-1.2762451171875	-2.1435546875E-4	-0.2485874609375	-1.89025986552028
-1.2786865234375	-2.244873046875E-4	-0.250954296875	-1.9796058614418
-1.2811279296875	-2.35809326171875E-4	-0.253312373046875	-2.07944732073964
-1.2835693359375	-2.47711181640625E-4	-0.255666181640625	-2.18440195450287
-1.2860107421875	-2.59765625E-4	-0.2580188671875	-2.29070216049383
-1.2884521484375	-2.73529052734375E-4	-0.260358974609375	-2.41207277543541
-1.2908935546875	-2.87261962890625E-4	-0.262699306640625	-2.53317427593144
-1.2933349609375	-3.021240234375E-4	-0.265031328125	-2.6642330109127
-1.2957763671875	-3.17596435546875E-4	-0.267358857421875	-2.80067403480489
-1.2982177734375	-3.345947265625E-4	-0.26967515625	-2.95057078097443
-1.3006591796875	-3.51959228515625E-4	-0.271988759765625	-3.10369690049052
-1.3031005859375	-3.7078857421875E-4	-0.27429158203125	-3.26974051339286
-1.3055419921875	-3.9019775390625E-4	-0.27659013671875	-3.44089730076058
-1.3079833984375	-4.10675048828125E-4	-0.278880830078125	-3.62147309372244
-1.3104248046875	-4.327392578125E-4	-0.28115984375	-3.81604283785273
-1.3128662109375	-4.554443359375E-4	-0.283434140625	-4.01626398533951
-1.3153076171875	-4.79248046875E-4	-0.2857003515625	-4.22617325286596
-1.3177490234375	-5.04852294921875E-4	-0.287953310546875	-4.45196027267967
-1.3201904296875	-5.308837890625E-4	-0.290203125	-4.68151489473104
-1.3226318359375	-5.59722900390625E-4	-0.292432275390625	-4.93582804577271
-1.3250732421875	-5.87921142578125E-4	-0.294666142578125	-5.18448979345789
-1.3275146484375	-6.202392578125E-4	-0.2968696875	-5.46948199129189
-1.3299560546875	-6.5216064453125E-4	-0.29907615234375	-5.75097570133378
-1.3323974609375	-6.8695068359375E-4	-0.30126150390625	-6.05776616925706
-1.3348388671875	-7.21435546875E-4	-0.3034491015625	-6.36186549272487
-1.3372802734375	-7.6080322265625E-4	-0.30560076171875	-6.70902312748016
-1.3397216796875	-7.9833984375E-4	-0.3077658984375	-7.04003389550265
-1.3421630859375	-8.41064453125E-4	-0.3098928515625	-7.41679411926808
-1.3446044921875	-8.82568359375E-4	-0.3120287890625	-7.78278976521164
-1.3470458984375	-9.28955078125E-4	-0.3141287890625	-8.19184372244268
-1.3494873046875	-9.735107421875E-4	-0.316242265625	-8.58475081294092
-1.3519287109375	-0.00102447509765625	-0.31830857421875	-9.03417193700397
-1.3543701171875	-0.0010723876953125	-0.32039734375	-9.45668161651235
-1.3568115234375	-0.0011285400390625	-0.32242546875	-9.95185219631834
-1.3592529296875	-0.00118133544921875	-0.32447830078125	-10.4174201871142
