Potential applied (V)	WE(1).Current (A)	V vs. RHE	j
		V	mA/cm\+(2)
-0.7025146484375	-1.0382080078125E-6	0.323573034301758	-0.0091552734375
-0.7049560546875	-2.11517333984375E-6	0.321139597595215	-0.0186523222208444
-0.7073974609375	-3.0120849609375E-6	0.318704828491211	-0.026561595775463
-0.7098388671875	-3.7689208984375E-6	0.316269022827148	-0.033235634025022
-0.7122802734375	-4.5013427734375E-6	0.313833036499023	-0.0396943807181437
-0.7147216796875	-5.17578125E-6	0.31139662109375	-0.0456418099647266
-0.7171630859375	-5.6427001953125E-6	0.308958670043945	-0.0497592609815917
-0.7196044921875	-6.280517578125E-6	0.306521983642578	-0.0553837528935185
-0.7220458984375	-6.671142578125E-6	0.304083468017578	-0.0588284177965168
-0.7244873046875	-7.32421875E-6	0.30164689453125	-0.0645874669312169
-0.7269287109375	-7.77587890625E-6	0.299208830566406	-0.0685703607253087
-0.7293701171875	-8.111572265625E-6	0.296769908447265	-0.0715306196263227
-0.7318115234375	-8.55712890625E-6	0.294331799316406	-0.0754596905313051
-0.7342529296875	-9.027099609375E-6	0.291893870849609	-0.0796040529927249
-0.7366943359375	-9.2987060546875E-6	0.289454474487305	-0.0819991715580908
-0.7391357421875	-9.7503662109375E-6	0.287016410522461	-0.0859820653521825
-0.7415771484375	-1.00616455078125E-5	0.284577307739258	-0.0887270326967593
-0.7440185546875	-1.03851318359375E-5	0.282138295288086	-0.0915796458195547
-0.7464599609375	-1.06292724609375E-5	0.279698695678711	-0.0937325613839286
-0.7489013671875	-1.09405517578125E-5	0.277259592895508	-0.0964775287285053
-0.7513427734375	-1.1181640625E-5	0.274819970703125	-0.0986035328483245
-0.7537841796875	-1.15478515625E-5	0.272381274414062	-0.101832906194885
-0.7562255859375	-1.1859130859375E-5	0.269942171630859	-0.104577873539462
-0.7586669921875	-1.19354248046875E-5	0.267501329956055	-0.105250659653329
-0.7611083984375	-1.22314453125E-5	0.265062114257812	-0.107861069775132
-0.7635498046875	-1.25732421875E-5	0.262623237304687	-0.110875151565256
-0.7659912109375	-1.27716064453125E-5	0.260183298950195	-0.11262439546131
-0.7684326171875	-1.29852294921875E-5	0.257743473510742	-0.114508196580137
-0.7708740234375	-1.31988525390625E-5	0.255303648071289	-0.116391997698964
-0.7733154296875	-1.3446044921875E-5	0.252864071044922	-0.118571824707892
-0.7757568359375	-1.3629150390625E-5	0.250424019775391	-0.120186511381173
-0.7781982421875	-1.3787841796875E-5	0.247983787841797	-0.121585906498016
-0.7806396484375	-1.4093017578125E-5	0.245544639892578	-0.124277050953483
-0.7830810546875	-1.414794921875E-5	0.243103640136719	-0.124761456955467
-0.7855224609375	-1.44989013671875E-5	0.240664830932617	-0.127856273079255
-0.7879638671875	-1.4642333984375E-5	0.238224486083984	-0.129121110973325
-0.7904052734375	-1.4813232421875E-5	0.235784344482422	-0.130628151868386
-0.7928466796875	-1.5020751953125E-5	0.233344473876953	-0.132458130098104
-0.7952880859375	-1.527099609375E-5	0.230904919433594	-0.134664868551587
-0.7977294921875	-1.53564453125E-5	0.228464145507812	-0.135418388999118
-0.8001708984375	-1.5618896484375E-5	0.226024681396484	-0.13773277323082
-0.8026123046875	-1.57257080078125E-5	0.223584065551758	-0.138674673790234
-0.8050537109375	-1.59393310546875E-5	0.221144240112305	-0.140558474909061
-0.8074951171875	-1.60888671875E-5	0.218703940429687	-0.14187713569224
-0.8099365234375	-1.62811279296875E-5	0.21626395690918	-0.143572556699184
-0.8123779296875	-1.64703369140625E-5	0.213823950805664	-0.145241066261574
-0.8148193359375	-1.66961669921875E-5	0.211384215698242	-0.14723251315862
-0.8172607421875	-1.68487548828125E-5	0.208943938598633	-0.148578085386354
-0.8197021484375	-1.69342041015625E-5	0.206503164672851	-0.149331605833884
-0.8221435546875	-1.7218017578125E-5	0.204063858642578	-0.151834370177469
-0.8245849609375	-1.73095703125E-5	0.201623129882812	-0.152641713514109
-0.8270263671875	-1.744384765625E-5	0.199182717285156	-0.153825817074515
-0.8294677734375	-1.76727294921875E-5	0.196743004760742	-0.155844175416116
-0.8319091796875	-1.78497314453125E-5	0.194302908325195	-0.157405039200287
-0.8343505859375	-1.790771484375E-5	0.191861931152344	-0.157916356646825
-0.8367919921875	-1.80816650390625E-5	0.189421812133789	-0.159450308986442
-0.8392333984375	-1.82037353515625E-5	0.186981309204101	-0.160526766768629
-0.8416748046875	-1.8328857421875E-5	0.184540828857422	-0.16163013599537
-0.8441162109375	-1.85577392578125E-5	0.182101116333008	-0.163648494336971
-0.8465576171875	-1.8609619140625E-5	0.179660093994141	-0.1641059888944
-0.8489990234375	-1.87713623046875E-5	0.177219884643555	-0.165532295455798
-0.8514404296875	-1.89453125E-5	0.174779765625	-0.167066247795414
-0.8538818359375	-1.9134521484375E-5	0.172339759521484	-0.168734757357804
-0.8563232421875	-1.9287109375E-5	0.169899482421875	-0.170080329585538
-0.8587646484375	-1.94366455078125E-5	0.167459182739258	-0.171398990368717
-0.8612060546875	-1.95098876953125E-5	0.165018318481445	-0.172044865038029
-0.8636474609375	-1.97357177734375E-5	0.162578583374023	-0.174036311935075
-0.8660888671875	-1.97998046875E-5	0.160137651367187	-0.174601452270723
-0.8685302734375	-1.9970703125E-5	0.157697509765625	-0.176108493165785
-0.8709716796875	-2.015380859375E-5	0.155257458496094	-0.177723179839065
-0.8734130859375	-2.01995849609375E-5	0.152816390991211	-0.178126851507385
-0.8758544921875	-2.04376220703125E-5	0.15037674621582	-0.18022594418265
-0.8782958984375	-2.0587158203125E-5	0.147936446533203	-0.181544604965829
-0.8807373046875	-2.06817626953125E-5	0.145495740356445	-0.182378859747024
-0.8831787109375	-2.086181640625E-5	0.143055666503906	-0.18396663497575
-0.8856201171875	-2.0941162109375E-5	0.140614847412109	-0.184666332534171
-0.8880615234375	-2.10693359375E-5	0.138174389648437	-0.185796613205467
-0.8905029296875	-2.1173095703125E-5	0.135733751220703	-0.186711602320326
-0.8929443359375	-2.12738037109375E-5	0.133293090209961	-0.187599679990631
-0.8953857421875	-2.14874267578125E-5	0.130853264770508	-0.189483481109458
-0.8978271484375	-2.15362548828125E-5	0.128412219848633	-0.189914064222332
-0.9002685546875	-2.16583251953125E-5	0.125971716918945	-0.190990522004519
-0.9027099609375	-2.1710205078125E-5	0.123530694580078	-0.191448016561949
-0.9051513671875	-2.20184326171875E-5	0.121091569213867	-0.194166072461971
-0.9075927734375	-2.20611572265625E-5	0.118650479125976	-0.194542832685736
-0.9100341796875	-2.2137451171875E-5	0.116209637451172	-0.195215618799603
-0.9124755859375	-2.22625732421875E-5	0.113769157104492	-0.196318988026345
-0.9149169921875	-2.236328125E-5	0.11132849609375	-0.197207065696649
-0.9173583984375	-2.2509765625E-5	0.108888173828125	-0.198498815035273
-0.9197998046875	-2.2650146484375E-5	0.106447806396484	-0.199736741484788
-0.9222412109375	-2.2698974609375E-5	0.104006761474609	-0.200167324597663
-0.9246826171875	-2.29461669921875E-5	0.101567184448242	-0.202347151606592
-0.9271240234375	-2.28912353515625E-5	0.0991253717041014	-0.201862745604608
-0.9295654296875	-2.30804443359375E-5	0.0966853656005858	-0.203531255166997
-0.9320068359375	-2.31292724609375E-5	0.0942443206787108	-0.203961838279872
-0.9344482421875	-2.32177734375E-5	0.0918035693359374	-0.204742270171958
-0.9368896484375	-2.3291015625E-5	0.0893627050781248	-0.20538814484127
-0.9393310546875	-2.3516845703125E-5	0.086922969970703	-0.207379591738316
-0.9417724609375	-2.3651123046875E-5	0.0844825573730468	-0.208563695298721
-0.9442138671875	-2.3809814453125E-5	0.082042325439453	-0.209963090415564
-0.9466552734375	-2.38983154296875E-5	0.0796015740966796	-0.21074352230765
-0.9490966796875	-2.4005126953125E-5	0.077160958251953	-0.211685422867063
-0.9515380859375	-2.40875244140625E-5	0.074720161743164	-0.21241203187004
-0.9539794921875	-2.42523193359375E-5	0.0722799749755858	-0.213865249875992
-0.9564208984375	-2.425537109375E-5	0.0698385913085936	-0.213892161320547
-0.9588623046875	-2.42919921875E-5	0.0673974560546874	-0.214215098655203
-0.9613037109375	-2.44903564453125E-5	0.0649575177001952	-0.215964342551257
-0.9637451171875	-2.4554443359375E-5	0.0625165856933593	-0.216529482886905
-0.9661865234375	-2.46337890625E-5	0.0600757666015623	-0.217229180445326
-0.9686279296875	-2.476806640625E-5	0.0576353540039062	-0.218413284005732
-0.9710693359375	-2.493896484375E-5	0.0551952124023436	-0.219920324900794
-0.9735107421875	-2.49725341796875E-5	0.0527540545654296	-0.220216350790895
-0.9759521484375	-2.50946044921875E-5	0.050313551635742	-0.221292808573082
-0.9783935546875	-2.51678466796875E-5	0.0478726873779296	-0.221938683242394
-0.9808349609375	-2.528076171875E-5	0.0454321166992186	-0.222934406690917
-0.9832763671875	-2.535400390625E-5	0.0429912524414061	-0.223580281360229
-0.9857177734375	-2.54486083984375E-5	0.0405505462646483	-0.224414536141424
-0.9881591796875	-2.55096435546875E-5	0.0381095916748045	-0.224952765032518
-0.9906005859375	-2.5689697265625E-5	0.0356695178222655	-0.226540540261243
-0.9930419921875	-2.567138671875E-5	0.0332279760742187	-0.226379071593915
-0.9954833984375	-2.57568359375E-5	0.0307872021484373	-0.227132592041446
-0.9979248046875	-2.58819580078125E-5	0.0283467218017577	-0.228235961268188
-1.0003662109375	-2.59979248046875E-5	0.0259061737060546	-0.229258596161265
-1.0028076171875	-2.6043701171875E-5	0.0234651062011717	-0.229662267829586
-1.0052490234375	-2.6129150390625E-5	0.0210243322753905	-0.230415788277116
-1.0076904296875	-2.6312255859375E-5	0.0185842810058592	-0.232030474950397
-1.0101318359375	-2.63092041015625E-5	0.0161428521728515	-0.232003563505842
-1.0125732421875	-2.63671875E-5	0.013701875	-0.232514880952381
-1.0150146484375	-2.66082763671875E-5	0.0112622528076172	-0.2346408850722
-1.0174560546875	-2.66265869140625E-5	0.00882098205566395	-0.234802353739528
-1.0198974609375	-2.66387939453125E-5	0.00637966613769514	-0.234909999517747
-1.0223388671875	-2.67364501953125E-5	0.00393898254394509	-0.235771165743496
-1.0247802734375	-2.6922607421875E-5	0.00149895385742171	-0.237412763861332
-1.0272216796875	-2.70416259765625E-5	-9.41571655273643E-4	-0.238462310198964
-1.0296630859375	-2.70477294921875E-5	-0.00338293273925783	-0.238516133088073
-1.0321044921875	-2.71728515625E-5	-0.00582341308593759	-0.239619502314815
-1.0345458984375	-2.7294921875E-5	-0.00826391601562504	-0.240695960097002
-1.0369873046875	-2.74505615234375E-5	-0.0107041705322266	-0.24206844376929
-1.0394287109375	-2.75543212890625E-5	-0.0131448089599611	-0.242983432884149
-1.0418701171875	-2.76580810546875E-5	-0.0155854473876955	-0.243898421999008
-1.0443115234375	-2.7734375E-5	-0.0180262890625	-0.244571208112875
-1.0467529296875	-2.78533935546875E-5	-0.0204668145751954	-0.245620754450507
-1.0491943359375	-2.8045654296875E-5	-0.0229067980957032	-0.247316175457451
-1.0516357421875	-2.816162109375E-5	-0.0253473461914064	-0.248338810350529
-1.0540771484375	-2.83111572265625E-5	-0.0277876458740236	-0.249657471133708
-1.0565185546875	-2.84820556640625E-5	-0.0302277874755861	-0.25116451202877
-1.0589599609375	-2.87200927734375E-5	-0.0326674322509768	-0.253263604704034
-1.0614013671875	-2.87200927734375E-5	-0.0351088385009768	-0.253263604704034
-1.0638427734375	-2.889404296875E-5	-0.0375489575195314	-0.254797557043651
-1.0662841796875	-2.91473388671875E-5	-0.039988489379883	-0.257031206941689
-1.0687255859375	-2.92724609375E-5	-0.0424289697265625	-0.25813457616843
-1.0711669921875	-2.95013427734375E-5	-0.0448686822509767	-0.260152934510031
-1.0736083984375	-2.97027587890625E-5	-0.047308598022461	-0.261929089850639
-1.0760498046875	-2.97637939453125E-5	-0.0497495526123048	-0.262467318741733
-1.0784912109375	-2.99957275390625E-5	-0.0521892425537112	-0.264512588527888
-1.0809326171875	-3.018798828125E-5	-0.0546292260742189	-0.266208009534832
-1.0833740234375	-3.0511474609375E-5	-0.0570682385253907	-0.269060622657628
-1.0858154296875	-3.05816650390625E-5	-0.059509125366211	-0.269679585882385
-1.0882568359375	-3.08135986328125E-5	-0.0619488153076173	-0.271724855668541
-1.0906982421875	-3.1036376953125E-5	-0.0643885729980469	-0.273689391121032
-1.0931396484375	-3.12469482421875E-5	-0.0668284210205079	-0.275546280795304
-1.0955810546875	-3.1610107421875E-5	-0.0692671398925782	-0.27874874269731
-1.0980224609375	-3.173828125E-5	-0.07170759765625	-0.279879023368607
-1.1004638671875	-3.1988525390625E-5	-0.0741471520996095	-0.28208576182209
-1.1029052734375	-3.22906494140625E-5	-0.076586322631836	-0.284749994833003
-1.1053466796875	-3.26202392578125E-5	-0.0790252899169923	-0.287656430844907
-1.1077880859375	-3.29345703125E-5	-0.0814643701171875	-0.290428309634039
-1.1102294921875	-3.3154296875E-5	-0.083904150390625	-0.292365933641975
-1.1126708984375	-3.34686279296875E-5	-0.0863432305908205	-0.295137812431107
-1.1151123046875	-3.38409423828125E-5	-0.0887818817138673	-0.298421008666777
-1.1175537109375	-3.41522216796875E-5	-0.0912209844970704	-0.301165976011354
-1.1199951171875	-3.44757080078125E-5	-0.0936599969482423	-0.304018589134149
-1.1224365234375	-3.48419189453125E-5	-0.0960986932373049	-0.30724796248071
-1.1248779296875	-3.50860595703125E-5	-0.0985382928466798	-0.309400878045084
-1.1273193359375	-3.55133056640625E-5	-0.100976537475586	-0.313168480282738
-1.1297607421875	-3.58673095703125E-5	-0.10341532409668	-0.31629020785108
-1.1322021484375	-3.6328125E-5	-0.1058533203125	-0.320353835978836
-1.1346435546875	-3.66485595703125E-5	-0.10829235534668	-0.323179537657077
-1.1370849609375	-3.7158203125E-5	-0.110729990234375	-0.327673748897707
-1.1395263671875	-3.75396728515625E-5	-0.113168573608398	-0.331037679467041
-1.1419677734375	-3.80340576171875E-5	-0.115606321411133	-0.335397333484899
-1.1444091796875	-3.841552734375E-5	-0.118044904785156	-0.338761264054233
-1.1468505859375	-3.89923095703125E-5	-0.12048204284668	-0.343847527075066
-1.1492919921875	-3.948974609375E-5	-0.122919768066406	-0.348234092537478
-1.1517333984375	-4.01824951171875E-5	-0.125356047973633	-0.354342990451389
-1.1541748046875	-4.058837890625E-5	-0.127794450683594	-0.357922212577161
-1.1566162109375	-4.12109375E-5	-0.13023125	-0.363412147266314
-1.1590576171875	-4.17755126953125E-5	-0.132668478393555	-0.368390764508929
-1.1614990234375	-4.241943359375E-5	-0.135105119628906	-0.374069079309965
-1.1639404296875	-4.31732177734375E-5	-0.137540947875977	-0.380716206114969
-1.1663818359375	-4.388427734375E-5	-0.139977092285156	-0.386986572696208
-1.1688232421875	-4.45953369140625E-5	-0.142413236694336	-0.393256939277447
-1.1712646484375	-4.53369140625E-5	-0.144849155273438	-0.399796420304233
-1.1737060546875	-4.617919921875E-5	-0.147284328613281	-0.407223979001323
-1.1761474609375	-4.7064208984375E-5	-0.149719185791016	-0.415028297922178
-1.1785888671875	-4.79766845703125E-5	-0.15215383972168	-0.423074819844026
-1.1810302734375	-4.8956298828125E-5	-0.154587996826172	-0.431713393546076
-1.1834716796875	-4.99176025390625E-5	-0.157022289428711	-0.440190498580798
-1.1859130859375	-5.101318359375E-5	-0.159455588378906	-0.449851707175926
-1.1883544921875	-5.2044677734375E-5	-0.161889361572266	-0.458947775435406
-1.1907958984375	-5.33599853515625E-5	-0.164321034545899	-0.47054660803847
-1.1932373046875	-5.45135498046875E-5	-0.166753904418945	-0.480719134080137
-1.1956787109375	-5.58990478515625E-5	-0.169185057983398	-0.492936929907959
-1.1981201171875	-5.72265625E-5	-0.171616640625	-0.504643408289242
-1.2005615234375	-5.87249755859375E-5	-0.174046958618164	-0.517856927565586
-1.2030029296875	-6.02508544921875E-5	-0.176477073364258	-0.531312649842923
-1.2054443359375	-6.2164306640625E-5	-0.17890432006836	-0.548186125578704
-1.2078857421875	-6.38427734375E-5	-0.181333305664063	-0.562987420083774
-1.2103271484375	-6.5765380859375E-5	-0.183760484619141	-0.579941630153219
-1.2127685546875	-6.768798828125E-5	-0.186187663574219	-0.596895840222663
-1.2152099609375	-6.976318359375E-5	-0.188613713378906	-0.615195622519841
-1.2176513671875	-7.18994140625E-5	-0.191039311523438	-0.634033633708113
-1.2200927734375	-7.43408203125E-5	-0.193462651367187	-0.655562789351852
-1.2225341796875	-7.6690673828125E-5	-0.195886668701172	-0.676284601658951
-1.2249755859375	-7.9345703125E-5	-0.198308427734375	-0.699697558421517
-1.2274169921875	-8.2061767578125E-5	-0.200729735107422	-0.723648744075176
-1.2298583984375	-8.5052490234375E-5	-0.203149010009766	-0.750021959738757
-1.2322998046875	-8.8165283203125E-5	-0.205567381591797	-0.777471633184524
-1.2347412109375	-9.1522216796875E-5	-0.207983946533203	-0.807074222194665
-1.2371826171875	-9.4940185546875E-5	-0.210400059814453	-0.837215040095899
-1.2396240234375	-9.8876953125E-5	-0.212812333984375	-0.871930803571429
-1.2420654296875	-1.0272216796875E-4	-0.215225285644531	-0.905839223710317
-1.2445068359375	-1.0693359375E-4	-0.21763552734375	-0.942977017195767
-1.2469482421875	-1.11419677734375E-4	-0.220043736572266	-0.982536840691138
-1.2493896484375	-1.16241455078125E-4	-0.222449461669922	-1.02505692308752
-1.2518310546875	-1.21368408203125E-4	-0.224852928466797	-1.07026814993937
-1.2542724609375	-1.26739501953125E-4	-0.227254588623047	-1.1176322923556
-1.2567138671875	-1.32568359375E-4	-0.229652861328125	-1.16903315145503
-1.2591552734375	-1.38763427734375E-4	-0.232048424072266	-1.22366338390101
-1.2615966796875	-1.45172119140625E-4	-0.234442406005859	-1.28017741746583
-1.2640380859375	-1.5203857421875E-4	-0.236833000488281	-1.34072816771384
-1.2664794921875	-1.59393310546875E-4	-0.239219981689453	-1.40558474909061
-1.2689208984375	-1.67205810546875E-4	-0.241603575439453	-1.47447804715057
-1.2713623046875	-1.754150390625E-4	-0.243984233398438	-1.54686983300265
-1.2738037109375	-1.84326171875E-4	-0.246359697265625	-1.62545125110229
-1.2762451171875	-1.93603515625E-4	-0.248732451171875	-1.7072620425485
-1.2786865234375	-2.03582763671875E-4	-0.251100010986328	-1.79526246624228
-1.2811279296875	-2.14080810546875E-4	-0.253463731689453	-1.88783783551036
-1.2835693359375	-2.25311279296875E-4	-0.255822032470703	-1.98687195147156
-1.2860107421875	-2.37213134765625E-4	-0.258175364990234	-2.09182658523479
-1.2884521484375	-2.4981689453125E-4	-0.260523503417969	-2.20297085124559
-1.2908935546875	-2.63397216796875E-4	-0.262864415283203	-2.32272677951389
-1.2933349609375	-2.77557373046875E-4	-0.265201036376953	-2.44759588224758
-1.2957763671875	-2.926025390625E-4	-0.267531108398437	-2.58026930390212
-1.2982177734375	-3.08380126953125E-4	-0.269855760498047	-2.71940147224978
-1.3006591796875	-3.25469970703125E-4	-0.272170701904297	-2.87010556175595
-1.3031005859375	-3.43414306640625E-4	-0.274479320068359	-3.02834485573743
-1.3055419921875	-3.62091064453125E-4	-0.276782518310547	-3.19304289641204
-1.3079833984375	-3.82232666015625E-4	-0.279074876708984	-3.37065843047288
-1.3104248046875	-4.036865234375E-4	-0.281357524414063	-3.55984588569224
-1.3128662109375	-4.25872802734375E-4	-0.283634752197266	-3.75549208760472
-1.3153076171875	-4.49859619140625E-4	-0.285898656005859	-3.96701604180445
-1.3177490234375	-4.74639892578125E-4	-0.288156688232422	-4.1855369715884
-1.3201904296875	-5.0091552734375E-4	-0.290403654785156	-4.41724450920415
-1.3226318359375	-5.28656005859375E-4	-0.292639781494141	-4.66186954020613
-1.3250732421875	-5.57861328125E-4	-0.294865068359375	-4.91941206459436
-1.3275146484375	-5.88623046875E-4	-0.297078837890625	-5.19067942570547
-1.3299560546875	-6.2103271484375E-4	-0.299280412597656	-5.4764789668761
-1.3323974609375	-6.5521240234375E-4	-0.301468889160156	-5.77788714588845
-1.3348388671875	-6.9061279296875E-4	-0.303648332519531	-6.09005990272266
-1.3372802734375	-7.2784423828125E-4	-0.305814226074219	-6.41837952628968
-1.3397216796875	-7.672119140625E-4	-0.307964311523438	-6.76553716104498
-1.3421630859375	-8.0780029296875E-4	-0.310105363769531	-7.12345937362214
-1.3446044921875	-8.5113525390625E-4	-0.312226091308594	-7.5056018862985
-1.3470458984375	-8.9569091796875E-4	-0.314337785644531	-7.89850897679674
-1.3494873046875	-9.4268798828125E-4	-0.316431413574219	-8.31294522293871
-1.3519287109375	-9.912109375E-4	-0.31851375	-8.74083719135803
-1.3543701171875	-0.00104248046875	-0.32057576171875	-9.19294945987654
