Potential applied (V)	WE(1).Potential (V)	WE(1).Current (A)
0.102386474609375	0.10272216796875	6.74438476562497E-06
0.104827880859375	0.105224609375	6.80541992187506E-06
0.107269287109375	0.107666015625	6.80541992187506E-06
0.109710693359375	0.110137939453125	6.866455078125E-06
0.112152099609375	0.112518310546875	2.74658203125028E-08
0.114593505859375	0.114959716796875	5.79833984375028E-08
0.117034912109375	0.117401123046875	8.85009765625028E-08
0.119476318359375	0.119873046875	1.19018554687503E-07
0.121917724609375	0.122344970703125	1.43432617187494E-07
0.124359130859375	0.124755859375	1.83715820312499E-07
0.126800537109375	0.127227783203125	2.044677734375E-07
0.129241943359375	0.129730224609375	2.28271484375001E-07
0.131683349609375	0.13214111328125	2.46276855468749E-07
0.134124755859375	0.134552001953125	2.66418457031251E-07
0.136566162109375	0.13702392578125	3.3294677734375E-07
0.139007568359375	0.139434814453125	3.521728515625E-07
0.141448974609375	0.141876220703125	3.6773681640625E-07
0.143890380859375	0.14434814453125	3.8543701171875E-07
0.146331787109375	0.14678955078125	4.0191650390625E-07
0.148773193359375	0.149261474609375	4.144287109375E-07
0.151214599609375	0.151611328125	4.327392578125E-07
0.153656005859375	0.1541748046875	4.4586181640625E-07
0.156097412109375	0.156646728515625	4.6234130859375E-07
0.158538818359375	0.159088134765625	4.7607421875E-07
0.160980224609375	0.16241455078125	4.903564453125E-07
0.163421630859375	0.16461181640625	5.06256103515625E-07
0.165863037109375	0.16717529296875	5.17486572265625E-07
0.168304443359375	0.16961669921875	5.31341552734375E-07
0.170745849609375	0.172119140625	5.4498291015625E-07
0.173187255859375	0.174652099609375	5.56121826171875E-07
0.175628662109375	0.177093505859375	5.6585693359375E-07
0.178070068359375	0.179595947265625	5.76507568359375E-07
0.180511474609375	0.181854248046875	5.899658203125E-07
0.182952880859375	0.1844482421875	6.02081298828125E-07
0.185394287109375	0.185943603515625	6.1309814453125E-07
0.187835693359375	0.188446044921875	6.23779296875E-07
0.190277099609375	0.190826416015625	6.3934326171875E-07
0.192718505859375	0.1932373046875	6.5155029296875E-07
0.195159912109375	0.19561767578125	6.6436767578125E-07
0.197601318359375	0.198150634765625	6.744384765625E-07
0.200042724609375	0.200592041015625	6.890869140625E-07
0.202484130859375	0.203094482421875	7.0281982421875E-07
0.204925537109375	0.205535888671875	7.1533203125E-07
0.207366943359375	0.207916259765625	7.2784423828125E-07
0.209808349609375	0.210357666015625	7.4188232421875E-07
0.212249755859375	0.212799072265625	7.55615234375E-07
0.214691162109375	0.215362548828125	7.684326171875E-07
0.217132568359375	0.21771240234375	7.818603515625E-07
0.219573974609375	0.2200927734375	7.9681396484375E-07
0.222015380859375	0.222625732421875	8.1207275390625E-07
0.224456787109375	0.22509765625	8.270263671875E-07
0.226898193359375	0.227447509765625	8.4075927734375E-07
0.229339599609375	0.22991943359375	8.5540771484375E-07
0.231781005859375	0.232391357421875	8.709716796875E-07
0.234222412109375	0.234771728515625	8.8623046875E-07
0.236663818359375	0.237274169921875	9.02099609375E-07
0.239105224609375	0.23980712890625	9.197998046875E-07
0.241546630859375	0.242218017578125	9.381103515625E-07
0.243988037109375	0.24462890625	9.5428466796875E-07
0.246429443359375	0.2470703125	9.7198486328125E-07
0.248870849609375	0.249542236328125	9.881591796875E-07
0.251312255859375	0.251922607421875	1.00494384765625E-06
0.253753662109375	0.25445556640625	1.0247802734375E-06
0.256195068359375	0.2568359375	1.0418701171875E-06
0.258636474609375	0.259246826171875	1.06109619140625E-06
0.261077880859375	0.261749267578125	1.08306884765625E-06
0.263519287109375	0.26416015625	1.09954833984375E-06
0.265960693359375	0.266571044921875	1.12060546875E-06
0.268402099609375	0.269012451171875	1.13983154296875E-06
0.270843505859375	0.271514892578125	1.15997314453125E-06
0.273284912109375	0.273895263671875	1.18438720703125E-06
0.275726318359375	0.276397705078125	1.20513916015625E-06
0.278167724609375	0.27886962890625	1.23016357421875E-06
0.280609130859375	0.28131103515625	1.2518310546875E-06
0.283050537109375	0.283782958984375	1.27471923828125E-06
0.285491943359375	0.28619384765625	1.29791259765625E-06
0.287933349609375	0.288665771484375	1.32080078125E-06
0.290374755859375	0.29107666015625	1.34368896484375E-06
0.292816162109375	0.293548583984375	1.37054443359375E-06
0.295257568359375	0.29595947265625	1.39251708984375E-06
0.297698974609375	0.298431396484375	1.4166259765625E-06
0.300140380859375	0.3009033203125	1.4453125E-06
0.302581787109375	0.303375244140625	1.4697265625E-06
0.305023193359375	0.305755615234375	1.49658203125E-06
0.307464599609375	0.3082275390625	1.5234375E-06
0.309906005859375	0.310638427734375	1.55364990234375E-06
0.312347412109375	0.313140869140625	1.58050537109375E-06
0.314788818359375	0.315521240234375	1.6094970703125E-06
0.317230224609375	0.31805419921875	1.64154052734375E-06
0.319671630859375	0.3204345703125	1.6693115234375E-06
0.322113037109375	0.322845458984375	1.700439453125E-06
0.324554443359375	0.325347900390625	1.729736328125E-06
0.326995849609375	0.327850341796875	1.75994873046875E-06
0.329437255859375	0.330291748046875	1.7926025390625E-06
0.331878662109375	0.332672119140625	1.82342529296875E-06
0.334320068359375	0.3350830078125	1.85394287109375E-06
0.336761474609375	0.337554931640625	1.888427734375E-06
0.339202880859375	0.340087890625	1.9219970703125E-06
0.341644287109375	0.342498779296875	1.954345703125E-06
0.344085693359375	0.344940185546875	1.9854736328125E-06
0.346527099609375	0.347412109375	2.02056884765625E-06
0.348968505859375	0.349853515625	2.05352783203125E-06
0.351409912109375	0.352264404296875	2.088623046875E-06
0.353851318359375	0.354766845703125	2.12310791015625E-06
0.356292724609375	0.357147216796875	2.15728759765625E-06
0.358734130859375	0.35968017578125	2.1942138671875E-06
0.361175537109375	0.362060546875	2.2308349609375E-06
0.363616943359375	0.364501953125	2.26715087890625E-06
0.366058349609375	0.366973876953125	2.30621337890625E-06
0.368499755859375	0.369415283203125	2.3419189453125E-06
0.370941162109375	0.371917724609375	2.37548828125E-06
0.373382568359375	0.37432861328125	2.410888671875E-06
0.375823974609375	0.37677001953125	2.447509765625E-06
0.378265380859375	0.379241943359375	2.48809814453125E-06
0.380706787109375	0.381622314453125	2.52532958984375E-06
0.383148193359375	0.384124755859375	2.55950927734375E-06
0.385589599609375	0.38653564453125	2.5958251953125E-06
0.388031005859375	0.38897705078125	2.63275146484375E-06
0.390472412109375	0.391448974609375	2.6708984375E-06
0.392913818359375	0.3939208984375	2.708740234375E-06
0.395355224609375	0.39630126953125	2.7459716796875E-06
0.397796630859375	0.398834228515625	2.783203125E-06
0.400238037109375	0.401275634765625	2.82196044921875E-06
0.402679443359375	0.4036865234375	2.85980224609375E-06
0.405120849609375	0.406158447265625	2.89398193359375E-06
0.407562255859375	0.408660888671875	2.9302978515625E-06
0.410003662109375	0.4111328125	2.9681396484375E-06
0.412445068359375	0.413482666015625	3.00262451171875E-06
0.414886474609375	0.415863037109375	3.03924560546875E-06
0.417327880859375	0.41839599609375	3.074951171875E-06
0.419769287109375	0.420806884765625	3.111572265625E-06
0.422210693359375	0.4232177734375	3.14849853515625E-06
0.424652099609375	0.42578125	3.1829833984375E-06
0.427093505859375	0.428192138671875	3.221435546875E-06
0.429534912109375	0.43060302734375	3.25531005859375E-06
0.431976318359375	0.433074951171875	3.29193115234375E-06
0.434417724609375	0.435546875	3.3331298828125E-06
0.436859130859375	0.438018798828125	3.3673095703125E-06
0.439300537109375	0.4404296875	3.40728759765625E-06
0.441741943359375	0.442840576171875	3.44512939453125E-06
0.444183349609375	0.445404052734375	3.4814453125E-06
0.446624755859375	0.447845458984375	3.52081298828125E-06
0.449066162109375	0.450225830078125	3.5595703125E-06
0.451507568359375	0.452728271484375	3.59405517578125E-06
0.453948974609375	0.455047607421875	3.63555908203125E-06
0.456390380859375	0.457550048828125	3.677978515625E-06
0.458831787109375	0.460113525390625	3.71795654296875E-06
0.461273193359375	0.46246337890625	3.753662109375E-06
0.463714599609375	0.464874267578125	3.79913330078125E-06
0.466156005859375	0.467437744140625	3.83880615234375E-06
0.468597412109375	0.469696044921875	3.88763427734375E-06
0.471038818359375	0.47222900390625	3.935546875E-06
0.473480224609375	0.4747314453125	3.9801025390625E-06
0.475921630859375	0.477203369140625	4.027099609375E-06
0.478363037109375	0.4796142578125	4.07379150390625E-06
0.480804443359375	0.482086181640625	4.12322998046875E-06
0.483245849609375	0.484527587890625	4.17236328125E-06
0.485687255859375	0.487030029296875	4.22821044921875E-06
0.488128662109375	0.48944091796875	4.28436279296875E-06
0.490570068359375	0.491912841796875	4.3365478515625E-06
0.493011474609375	0.494293212890625	4.39666748046875E-06
0.495452880859375	0.49676513671875	4.4622802734375E-06
0.497894287109375	0.49932861328125	4.52301025390625E-06
0.500335693359375	0.501678466796875	4.58984375E-06
0.502777099609375	0.504150390625	4.66217041015625E-06
0.505218505859375	0.506500244140625	4.73663330078125E-06
0.507659912109375	0.509002685546875	4.814453125E-06
0.510101318359375	0.511505126953125	4.90203857421875E-06
0.512542724609375	0.513885498046875	4.99755859375E-06
0.514984130859375	0.516387939453125	5.09307861328125E-06
0.517425537109375	0.5189208984375	5.20294189453125E-06
0.519866943359375	0.5213623046875	5.31341552734375E-06
0.522308349609375	0.5238037109375	5.4364013671875E-06
0.524749755859375	0.5262451171875	5.5743408203125E-06
0.527191162109375	0.52874755859375	5.71533203125E-06
0.529632568359375	0.531158447265625	5.86944580078125E-06
0.532073974609375	0.53369140625	6.04156494140625E-06
0.534515380859375	0.535308837890625	6.243896484375E-06
0.536956787109375	0.537689208984375	6.4453125E-06
0.539398193359375	0.54010009765625	6.6650390625E-06
0.541839599609375	0.54254150390625	6.9183349609375E-06
0.544281005859375	0.54498291015625	7.1868896484375E-06
0.546722412109375	0.547454833984375	7.4951171875E-06
0.549163818359375	0.54986572265625	7.82470703125E-06
0.551605224609375	0.552337646484375	8.19091796875E-06
0.554046630859375	0.5548095703125	8.5845947265625E-06
0.556488037109375	0.5572509765625	9.02099609375E-06
0.558929443359375	0.559722900390625	9.4970703125E-06
0.561370849609375	0.562225341796875	1.00311279296875E-05
0.563812255859375	0.564666748046875	1.05987548828125E-05
0.566253662109375	0.567138671875	1.12213134765625E-05
0.568695068359375	0.56951904296875	1.18927001953125E-05
0.571136474609375	0.571929931640625	1.2646484375E-05
0.573577880859375	0.574432373046875	1.3482666015625E-05
0.576019287109375	0.576812744140625	1.4385986328125E-05
0.578460693359375	0.57928466796875	1.5350341796875E-05
0.580902099609375	0.581787109375	1.64306640625E-05
0.583343505859375	0.58428955078125	1.76116943359375E-05
0.585784912109375	0.586700439453125	1.8902587890625E-05
0.588226318359375	0.5892333984375	2.0318603515625E-05
0.590667724609375	0.59173583984375	2.1868896484375E-05
0.593109130859375	0.594146728515625	2.3553466796875E-05
0.595550537109375	0.5966796875	2.5390625E-05
0.597991943359375	0.59912109375	2.7374267578125E-05
0.600433349609375	0.6015625	2.9559326171875E-05
0.602874755859375	0.604034423828125	3.19244384765625E-05
0.605316162109375	0.606597900390625	3.4527587890625E-05
0.607757568359375	0.6090087890625	3.72833251953125E-05
0.610198974609375	0.611480712890625	4.03594970703125E-05
0.612640380859375	0.614044189453125	4.37591552734375E-05
0.615081787109375	0.616546630859375	4.7412109375E-05
0.617523193359375	0.618988037109375	5.1300048828125E-05
0.619964599609375	0.621551513671875	5.56060791015625E-05
0.622406005859375	0.624053955078125	6.02996826171875E-05
0.624847412109375	0.6256103515625	6.536865234375E-05
0.627288818359375	0.628021240234375	7.09228515625E-05
0.629730224609375	0.630523681640625	7.6934814453125E-05
0.632171630859375	0.633026123046875	8.3404541015625E-05
0.634613037109375	0.63543701171875	9.033203125E-05
0.637054443359375	0.63787841796875	9.783935546875E-05
0.639495849609375	0.640411376953125	0.00010589599609375
0.641937255859375	0.642852783203125	0.000114532470703125
0.644378662109375	0.645233154296875	0.000123779296875
0.646820068359375	0.647735595703125	0.000133453369140625
0.649261474609375	0.650115966796875	0.00014398193359375
0.651702880859375	0.65264892578125	0.00015521240234375
0.654144287109375	0.65521240234375	0.0001671142578125
0.656585693359375	0.65753173828125	0.00017938232421875
0.659027099609375	0.660003662109375	0.000192657470703125
0.661468505859375	0.662384033203125	0.000205291748046875
0.663909912109375	0.664947509765625	0.0002198486328125
0.666351318359375	0.6673583984375	0.00023577880859375
0.668792724609375	0.669921875	0.000252197265625
0.671234130859375	0.672393798828125	0.000269195556640625
0.673675537109375	0.674896240234375	0.0002869873046875
0.676116943359375	0.677337646484375	0.000305572509765625
0.678558349609375	0.679779052734375	0.000324981689453125
0.680999755859375	0.682281494140625	0.000345123291015625
0.683441162109375	0.68475341796875	0.000366058349609375
0.685882568359375	0.68719482421875	0.000387603759765625
0.688323974609375	0.689666748046875	0.0004102783203125
0.690765380859375	0.69219970703125	0.000434234619140625
0.693206787109375	0.6947021484375	0.00045849609375
0.695648193359375	0.696441650390625	0.0004835205078125
0.698089599609375	0.699615478515625	0.000509552001953125
0.700531005859375	0.70208740234375	0.000536376953125
0.702972412109375	0.704620361328125	0.000564453125
0.705413818359375	0.70709228515625	0.00059326171875
0.707855224609375	0.709564208984375	0.0006231689453125
0.710296630859375	0.711090087890625	0.000654296875
0.712738037109375	0.713531494140625	0.00068572998046875
0.715179443359375	0.71600341796875	0.00071807861328125
0.717620849609375	0.718414306640625	0.0007513427734375
0.720062255859375	0.720916748046875	0.0007855224609375
0.722503662109375	0.72332763671875	0.0008209228515625
0.724945068359375	0.725738525390625	0.0008563232421875
0.727386474609375	0.728271484375	0.0008929443359375
0.729827880859375	0.73077392578125	0.00093109130859375
0.732269287109375	0.733245849609375	0.00096954345703125
0.734710693359375	0.735565185546875	0.00100830078125
0.737152099609375	0.738128662109375	0.0010479736328125
0.739593505859375	0.74041748046875	0.00109375
0.742034912109375	0.742950439453125	0.00113067626953125
0.744476318359375	0.745452880859375	0.00117340087890625
0.746917724609375	0.747894287109375	0.001217041015625
0.749359130859375	0.75103759765625	0.00126068115234375
0.751800537109375	0.7525634765625	0.00130523681640625
0.754241943359375	0.7550048828125	0.00135009765625
0.756683349609375	0.7574462890625	0.00139617919921875
0.759124755859375	0.76019287109375	0.00144256591796875
0.761566162109375	0.7623291015625	0.001490478515625
0.764007568359375	0.76507568359375	0.00153778076171875
0.766448974609375	0.76751708984375	0.00158599853515625
0.768890380859375	0.76934814453125	0.00163482666015625
0.771331787109375	0.771484375	0.0016845703125
0.773773193359375	0.7745361328125	0.00173370361328125
0.776214599609375	0.7769775390625	0.00178314208984375
0.778656005859375	0.7794189453125	0.00183441162109375
0.781097412109375	0.78216552734375	0.00188568115234375
0.783538818359375	0.784912109375	0.00193695068359375
0.785980224609375	0.787353515625	0.0019891357421875
0.788421630859375	0.78857421875	0.002041015625
0.790863037109375	0.79193115234375	0.00209259033203125
0.793304443359375	0.7940673828125	0.00214569091796875
0.795745849609375	0.79620361328125	0.0021990966796875
0.798187255859375	0.7989501953125	0.00225311279296875
0.800628662109375	0.80169677734375	0.002305908203125
0.798187255859375	0.7989501953125	0.00223602294921875
0.795745849609375	0.7965087890625	0.00216766357421875
0.793304443359375	0.7940673828125	0.002099609375
0.790863037109375	0.7916259765625	0.00203338623046875
0.788421630859375	0.78857421875	0.00197021484375
0.785980224609375	0.78704833984375	0.00190704345703125
0.783538818359375	0.78399658203125	0.001845703125
0.781097412109375	0.7818603515625	0.00178619384765625
0.778656005859375	0.7794189453125	0.0017279052734375
0.776214599609375	0.7769775390625	0.001671142578125
0.773773193359375	0.77392578125	0.00161590576171875
0.771331787109375	0.77178955078125	0.00156280517578125
0.768890380859375	0.76995849609375	0.0015106201171875
0.766448974609375	0.76690673828125	0.0014593505859375
0.764007568359375	0.7647705078125	0.001409912109375
0.761566162109375	0.76202392578125	0.00136260986328125
0.759124755859375	0.7598876953125	0.00131561279296875
0.756683349609375	0.7568359375	0.0012701416015625
0.754241943359375	0.7550048828125	0.0012255859375
0.751800537109375	0.75225830078125	0.0011822509765625
0.749359130859375	0.74981689453125	0.00114013671875
0.746917724609375	0.747802734375	0.00109893798828125
0.744476318359375	0.745361328125	0.0010589599609375
0.742034912109375	0.742889404296875	0.0010198974609375
0.739593505859375	0.740478515625	0.00098236083984375
0.737152099609375	0.73797607421875	0.00094573974609375
0.734710693359375	0.735565185546875	0.0009100341796875
0.732269287109375	0.733123779296875	0.0008758544921875
0.729827880859375	0.73065185546875	0.00084259033203125
0.727386474609375	0.728240966796875	0.000809326171875
0.724945068359375	0.7257080078125	0.00077789306640625
0.722503662109375	0.723388671875	0.0007476806640625
0.720062255859375	0.7208251953125	0.0007177734375
0.717620849609375	0.718475341796875	0.0006890869140625
0.715179443359375	0.715972900390625	0.0006610107421875
0.712738037109375	0.713592529296875	0.00063385009765625
0.710296630859375	0.71112060546875	0.00060760498046875
0.707855224609375	0.7086181640625	0.00058197021484375
0.705413818359375	0.7061767578125	0.00055694580078125
0.702972412109375	0.703704833984375	0.00053314208984375
0.700531005859375	0.701263427734375	0.00050994873046875
0.698089599609375	0.6988525390625	0.00048748779296875
0.695648193359375	0.696441650390625	0.00046575927734375
0.693206787109375	0.694000244140625	0.00044512939453125
0.690765380859375	0.69158935546875	0.000424957275390625
0.688323974609375	0.689056396484375	0.00040509033203125
0.685882568359375	0.687255859375	0.000386138916015625
0.683441162109375	0.684783935546875	0.00036822509765625
0.680999755859375	0.68231201171875	0.00035064697265625
0.678558349609375	0.6798095703125	0.000333709716796875
0.676116943359375	0.677337646484375	0.000317474365234375
0.673675537109375	0.67486572265625	0.0003017578125
0.671234130859375	0.67236328125	0.00028656005859375
0.668792724609375	0.670013427734375	0.000271881103515625
0.666351318359375	0.66741943359375	0.0002576904296875
0.663909912109375	0.66497802734375	0.000244232177734375
0.661468505859375	0.66241455078125	0.000231231689453125
0.659027099609375	0.660064697265625	0.0002186279296875
0.656585693359375	0.657623291015625	0.00020654296875
0.654144287109375	0.655120849609375	0.000195159912109375
0.651702880859375	0.6527099609375	0.000184051513671875
0.649261474609375	0.65020751953125	0.000173248291015625
0.646820068359375	0.647705078125	0.000162994384765625
0.644378662109375	0.64532470703125	0.0001533203125
0.641937255859375	0.642852783203125	0.000143890380859375
0.639495849609375	0.640411376953125	0.000134857177734375
0.637054443359375	0.637939453125	0.000126129150390625
0.634613037109375	0.635467529296875	0.00011798095703125
0.632171630859375	0.633026123046875	0.00011016845703125
0.629730224609375	0.630523681640625	0.000102752685546875
0.627288818359375	0.6280517578125	9.564208984375E-05
0.624847412109375	0.62567138671875	8.8836669921875E-05
0.622406005859375	0.623199462890625	8.245849609375E-05
0.619964599609375	0.6207275390625	7.6416015625E-05
0.617523193359375	0.61822509765625	7.06787109375E-05
0.615081787109375	0.61590576171875	6.5399169921875E-05
0.612640380859375	0.6134033203125	6.0333251953125E-05
0.610198974609375	0.61090087890625	5.5511474609375E-05
0.607757568359375	0.608428955078125	5.1055908203125E-05
0.605316162109375	0.6060791015625	4.69146728515625E-05
0.602874755859375	0.60357666015625	4.3023681640625E-05
0.600433349609375	0.601226806640625	3.93890380859375E-05
0.597991943359375	0.598663330078125	3.6004638671875E-05
0.595550537109375	0.59625244140625	3.287353515625E-05
0.593109130859375	0.5943603515625	2.9998779296875E-05
0.590667724609375	0.591796875	2.73284912109375E-05
0.588226318359375	0.58917236328125	2.484130859375E-05
0.585784912109375	0.586700439453125	2.255859375E-05
0.583343505859375	0.584228515625	2.04742431640625E-05
0.580902099609375	0.581756591796875	1.859130859375E-05
0.578460693359375	0.57928466796875	1.68487548828125E-05
0.576019287109375	0.576873779296875	1.5277099609375E-05
0.573577880859375	0.57440185546875	1.38336181640625E-05
0.571136474609375	0.571929931640625	1.24969482421875E-05
0.568695068359375	0.569427490234375	1.1309814453125E-05
0.566253662109375	0.5670166015625	1.0247802734375E-05
0.563812255859375	0.564605712890625	9.2559814453125E-06
0.561370849609375	0.562164306640625	8.3587646484375E-06
0.558929443359375	0.55963134765625	7.550048828125E-06
0.556488037109375	0.557159423828125	6.8145751953125E-06
0.554046630859375	0.55474853515625	6.1492919921875E-06
0.551605224609375	0.552337646484375	5.548095703125E-06
0.549163818359375	0.54986572265625	4.998779296875E-06
0.546722412109375	0.547393798828125	4.4952392578125E-06
0.544281005859375	0.544891357421875	4.04754638671875E-06
0.541839599609375	0.54248046875	3.636474609375E-06
0.539398193359375	0.53997802734375	3.26690673828125E-06
0.536956787109375	0.538177490234375	2.94158935546875E-06
0.534515380859375	0.535552978515625	2.63580322265625E-06
0.532073974609375	0.533050537109375	2.35626220703125E-06
0.529632568359375	0.53045654296875	2.108154296875E-06
0.527191162109375	0.528076171875	1.88995361328125E-06
0.524749755859375	0.525665283203125	1.68121337890625E-06
0.522308349609375	0.523101806640625	1.49871826171875E-06
0.519866943359375	0.52069091796875	1.326904296875E-06
0.517425537109375	0.518157958984375	1.1737060546875E-06
0.514984130859375	0.5157470703125	1.0382080078125E-06
0.512542724609375	0.513336181640625	9.1217041015625E-07
0.510101318359375	0.510772705078125	7.9559326171875E-07
0.507659912109375	0.508392333984375	6.8939208984375E-07
0.505218505859375	0.505889892578125	5.9661865234375E-07
0.502777099609375	0.503387451171875	5.120849609375E-07
0.500335693359375	0.5009765625	4.3243408203125E-07
0.497894287109375	0.498565673828125	3.6102294921875E-07
0.495452880859375	0.4962158203125	2.9449462890625E-07
0.493011474609375	0.493682861328125	2.3162841796875E-07
0.490570068359375	0.49127197265625	1.7913818359375E-07
0.488128662109375	0.488922119140625	1.3787841796875E-07
0.485687255859375	0.48626708984375	9.136962890625E-08
0.483245849609375	0.483917236328125	4.84619140625E-08
0.480804443359375	0.481292724609375	8.941650390625E-09
0.478363037109375	0.478912353515625	-3.2745361328125E-08
0.475921630859375	0.4764404296875	-6.5032958984375E-08
0.473480224609375	0.473724365234375	-9.1156005859375E-08
0.471038818359375	0.4713134765625	-1.21795654296875E-07
0.468597412109375	0.468780517578125	-1.53045654296875E-07
0.466156005859375	0.4664306640625	-1.75506591796875E-07
0.463714599609375	0.46392822265625	-1.97509765625E-07
0.461273193359375	0.461517333984375	-2.22259521484375E-07
0.458831787109375	0.458892822265625	-2.3895263671875E-07
0.456390380859375	0.456390380859375	-2.57110595703125E-07
0.453948974609375	0.454132080078125	-2.8277587890625E-07
0.451507568359375	0.451690673828125	-3.00048828125E-07
0.449066162109375	0.44903564453125	-3.11370849609375E-07
0.446624755859375	0.446746826171875	-3.32000732421875E-07
0.444183349609375	0.444122314453125	-3.43963623046875E-07
0.441741943359375	0.441864013671875	-3.59344482421875E-07
0.439300537109375	0.439208984375	-3.75762939453125E-07
0.436859130859375	0.436737060546875	-3.87481689453125E-07
0.434417724609375	0.4344482421875	-4.0191650390625E-07
0.431976318359375	0.43194580078125	-4.144287109375E-07
0.429534912109375	0.42938232421875	-4.2822265625E-07
0.427093505859375	0.426788330078125	-4.3707275390625E-07
0.424652099609375	0.424468994140625	-4.50164794921875E-07
0.422210693359375	0.422027587890625	-4.59197998046875E-07
0.419769287109375	0.4195556640625	-4.678955078125E-07
0.417327880859375	0.417205810546875	-4.78057861328125E-07
0.414886474609375	0.41455078125	-4.9005126953125E-07
0.412445068359375	0.41229248046875	-5.003662109375E-07
0.410003662109375	0.40972900390625	-5.05126953125E-07
0.407562255859375	0.40728759765625	-5.16021728515625E-07
0.405120849609375	0.40496826171875	-5.2459716796875E-07
0.402679443359375	0.402374267578125	-5.333251953125E-07
0.400238037109375	0.39990234375	-5.39703369140625E-07
0.397796630859375	0.397491455078125	-5.5047607421875E-07
0.395355224609375	0.394805908203125	-5.5889892578125E-07
0.392913818359375	0.39276123046875	-5.65704345703125E-07
0.390472412109375	0.3900146484375	-5.74676513671875E-07
0.388031005859375	0.38763427734375	-5.82275390625E-07
0.385589599609375	0.38525390625	-5.888671875E-07
0.383148193359375	0.382659912109375	-5.9686279296875E-07
0.380706787109375	0.380218505859375	-5.99151611328125E-07
0.378265380859375	0.377716064453125	-6.09466552734375E-07
0.375823974609375	0.376190185546875	-6.1981201171875E-07
0.373382568359375	0.373809814453125	-6.2225341796875E-07
0.370941162109375	0.37139892578125	-6.2774658203125E-07
0.368499755859375	0.368896484375	-6.3751220703125E-07
0.366058349609375	0.366485595703125	-6.414794921875E-07
0.363616943359375	0.364013671875	-6.5032958984375E-07
0.361175537109375	0.361541748046875	-6.5704345703125E-07
0.358734130859375	0.359161376953125	-6.65283203125E-07
0.356292724609375	0.356658935546875	-6.6986083984375E-07
0.353851318359375	0.354217529296875	-6.8115234375E-07
0.351409912109375	0.3519287109375	-6.842041015625E-07
0.348968505859375	0.349456787109375	-6.8939208984375E-07
0.346527099609375	0.346954345703125	-6.976318359375E-07
0.344085693359375	0.344390869140625	-7.037353515625E-07
0.341644287109375	0.342010498046875	-7.0770263671875E-07
0.339202880859375	0.339569091796875	-7.177734375E-07
0.336761474609375	0.33709716796875	-7.2479248046875E-07
0.334320068359375	0.33465576171875	-7.3333740234375E-07
0.331878662109375	0.332305908203125	-7.38525390625E-07
0.329437255859375	0.329864501953125	-7.4432373046875E-07
0.326995849609375	0.327392578125	-7.5439453125E-07
0.324554443359375	0.3250732421875	-7.6171875E-07
0.322113037109375	0.322509765625	-7.6568603515625E-07
0.319671630859375	0.32000732421875	-7.733154296875E-07
0.317230224609375	0.3177490234375	-7.7972412109375E-07
0.314788818359375	0.315155029296875	-7.9345703125E-07
0.312347412109375	0.312744140625	-7.965087890625E-07
0.309906005859375	0.310333251953125	-8.0413818359375E-07
0.307464599609375	0.307830810546875	-8.1085205078125E-07
0.305023193359375	0.305419921875	-8.172607421875E-07
0.302581787109375	0.302978515625	-8.2305908203125E-07
0.300140380859375	0.30059814453125	-8.343505859375E-07
0.297698974609375	0.298095703125	-8.4259033203125E-07
0.295257568359375	0.29571533203125	-8.50830078125E-07
0.292816162109375	0.293243408203125	-8.5235595703125E-07
0.290374755859375	0.29071044921875	-8.5662841796875E-07
0.287933349609375	0.28826904296875	-8.673095703125E-07
0.285491943359375	0.285797119140625	-8.7310791015625E-07
0.283050537109375	0.2833251953125	-8.7646484375E-07
0.280609130859375	0.280975341796875	-8.8409423828125E-07
0.278167724609375	0.278564453125	-8.9141845703125E-07
0.275726318359375	0.276153564453125	-8.953857421875E-07
0.273284912109375	0.273651123046875	-9.0484619140625E-07
0.270843505859375	0.271148681640625	-9.08203125E-07
0.268402099609375	0.2686767578125	-9.130859375E-07
0.265960693359375	0.266326904296875	-9.197998046875E-07
0.263519287109375	0.26385498046875	-9.2254638671875E-07
0.261077880859375	0.26141357421875	-9.295654296875E-07
0.258636474609375	0.258941650390625	-9.3719482421875E-07
0.256195068359375	0.25640869140625	-9.38720703125E-07
0.253753662109375	0.254119873046875	-9.423828125E-07
0.251312255859375	0.251678466796875	-9.490966796875E-07
0.248870849609375	0.249267578125	-9.5184326171875E-07
0.246429443359375	0.246795654296875	-9.552001953125E-07
0.243988037109375	0.244384765625	-9.613037109375E-07
0.241546630859375	0.242034912109375	-9.6160888671875E-07
0.239105224609375	0.239471435546875	-9.6710205078125E-07
0.236663818359375	0.236968994140625	-9.6954345703125E-07
0.234222412109375	0.234527587890625	-9.72900390625E-07
0.231781005859375	0.232086181640625	-9.7503662109375E-07
0.229339599609375	0.2296142578125	-9.765625E-07
0.226898193359375	0.2271728515625	-9.8052978515625E-07
0.224456787109375	0.224853515625	-9.7930908203125E-07
0.222015380859375	0.222442626953125	-9.8236083984375E-07
0.219573974609375	0.219940185546875	-9.8724365234375E-07
0.217132568359375	0.21746826171875	-9.8724365234375E-07
0.214691162109375	0.21502685546875	-9.857177734375E-07
0.212249755859375	0.212646484375	-9.912109375E-07
0.209808349609375	0.21014404296875	-9.9151611328125E-07
0.207366943359375	0.207672119140625	-9.9334716796875E-07
0.204925537109375	0.205322265625	-9.9365234375E-07
0.202484130859375	0.20281982421875	-9.967041015625E-07
0.200042724609375	0.2003173828125	-9.9456787109375E-07
0.197601318359375	0.197906494140625	-9.9822998046875E-07
0.195159912109375	0.195465087890625	-9.9884033203125E-07
0.192718505859375	0.193023681640625	-9.9945068359375E-07
0.190277099609375	0.190582275390625	-1.002197265625E-06
0.187835693359375	0.188079833984375	-1.0015869140625E-06
0.185394287109375	0.185699462890625	-1.00067138671875E-06
0.182952880859375	0.183319091796875	-1.0003662109375E-06
0.180511474609375	0.180816650390625	-1.00738525390625E-06
0.178070068359375	0.1783447265625	-1.005859375E-06
0.175628662109375	0.17608642578125	-1.0052490234375E-06
0.173187255859375	0.1734619140625	-1.005859375E-06
0.170745849609375	0.17108154296875	-1.0076904296875E-06
0.168304443359375	0.168701171875	-1.00921630859375E-06
0.165863037109375	0.166259765625	-1.0089111328125E-06
0.163421630859375	0.16375732421875	-1.01104736328125E-06
0.160980224609375	0.16131591796875	-1.0107421875E-06
0.158538818359375	0.15887451171875	-1.01165771484375E-06
0.156097412109375	0.1563720703125	-1.01531982421875E-06
0.153656005859375	0.154083251953125	-1.0174560546875E-06
0.151214599609375	0.151519775390625	-1.01593017578125E-06
0.148773193359375	0.1490478515625	-1.01531982421875E-06
0.146331787109375	0.146636962890625	-1.015625E-06
0.143890380859375	0.14422607421875	-1.0150146484375E-06
0.141448974609375	0.141754150390625	-1.01959228515625E-06
0.139007568359375	0.139312744140625	-1.02020263671875E-06
0.136566162109375	0.13690185546875	-1.01959228515625E-06
0.134124755859375	0.13433837890625	-1.024169921875E-06
0.131683349609375	0.1319580078125	-1.02447509765625E-06
0.129241943359375	0.1295166015625	-1.02325439453125E-06
0.126800537109375	0.127105712890625	-1.02325439453125E-06
0.124359130859375	0.124664306640625	-1.026611328125E-06
0.121917724609375	0.122161865234375	-1.02996826171875E-06
0.119476318359375	0.119659423828125	-1.02447509765625E-06
0.117034912109375	0.117218017578125	-1.02935791015625E-06
0.114593505859375	0.11474609375	-1.0296630859375E-06
0.112152099609375	0.112335205078125	-1.02996826171875E-06
0.109710693359375	0.109893798828125	-1.03271484375E-06
0.107269287109375	0.107574462890625	-1.033935546875E-06
0.104827880859375	0.10516357421875	-1.03302001953125E-06
0.102386474609375	0.1026611328125	-1.03607177734375E-06
0.099945068359375	0.100250244140625	-1.03759765625E-06
0.097503662109375	0.097808837890625	-1.03607177734375E-06
0.095062255859375	0.095306396484375	-1.03790283203125E-06
0.092620849609375	0.092803955078125	-1.03912353515625E-06
0.090179443359375	0.09039306640625	-1.0400390625E-06
0.087738037109375	0.087982177734375	-1.0400390625E-06
0.090179443359375	0.090484619140625	-9.014892578125E-07
0.092620849609375	0.0928955078125	-8.0291748046875E-07
0.095062255859375	0.095367431640625	-7.244873046875E-07
0.097503662109375	0.0977783203125	-6.549072265625E-07
0.099945068359375	0.10028076171875	-5.963134765625E-07
0.102386474609375	0.10272216796875	-5.419921875E-07
0.104827880859375	0.10516357421875	-4.9041748046875E-07
0.107269287109375	0.107635498046875	-4.4281005859375E-07
0.109710693359375	0.110107421875	-3.997802734375E-07
0.112152099609375	0.112518310546875	-3.5430908203125E-07
0.114593505859375	0.11492919921875	-3.155517578125E-07
0.117034912109375	0.11700439453125	-2.874755859375E-07
0.119476318359375	0.1195068359375	-2.53936767578125E-07
0.121917724609375	0.122100830078125	-2.2161865234375E-07
0.124359130859375	0.124420166015625	-1.91925048828125E-07
0.126800537109375	0.12701416015625	-1.6204833984375E-07
0.129241943359375	0.12933349609375	-1.346435546875E-07
0.131683349609375	0.132049560546875	-1.08428955078125E-07
0.134124755859375	0.134490966796875	-8.184814453125E-08
0.136566162109375	0.136993408203125	-5.84716796875E-08
0.139007568359375	0.139617919921875	-3.466796875E-08
0.141448974609375	0.1417236328125	-1.23291015625E-08
0.143890380859375	0.144439697265625	1.28173828125E-08
0.146331787109375	0.146728515625	3.5980224609375E-08
0.148773193359375	0.149169921875	5.6365966796875E-08
0.151214599609375	0.15179443359375	7.7362060546875E-08
0.153656005859375	0.1541748046875	9.832763671875E-08
0.156097412109375	0.156768798828125	1.18927001953125E-07
0.158538818359375	0.159210205078125	1.35986328125E-07
0.160980224609375	0.161712646484375	1.57196044921875E-07
0.163421630859375	0.16412353515625	1.7510986328125E-07
0.165863037109375	0.16644287109375	1.900634765625E-07
0.168304443359375	0.169189453125	2.09228515625E-07
0.170745849609375	0.17156982421875	2.266845703125E-07
0.173187255859375	0.174102783203125	2.44781494140625E-07
0.175628662109375	0.176513671875	2.63763427734375E-07
0.178070068359375	0.179046630859375	2.7667236328125E-07
0.180511474609375	0.181488037109375	2.9241943359375E-07
0.182952880859375	0.183868408203125	3.13507080078125E-07
0.185394287109375	0.186431884765625	3.27301025390625E-07
0.187835693359375	0.188720703125	3.43902587890625E-07
0.190277099609375	0.19122314453125	3.59893798828125E-07
0.192718505859375	0.193817138671875	3.74603271484375E-07
0.195159912109375	0.19622802734375	3.92181396484375E-07
0.197601318359375	0.19873046875	4.04815673828125E-07
0.200042724609375	0.20111083984375	4.2315673828125E-07
0.202484130859375	0.2037353515625	4.38629150390625E-07
0.204925537109375	0.206329345703125	4.5172119140625E-07
0.207366943359375	0.208587646484375	4.661865234375E-07
0.209808349609375	0.211029052734375	4.81842041015625E-07
0.212249755859375	0.213470458984375	4.96368408203125E-07
0.214691162109375	0.21588134765625	5.10498046875E-07
0.217132568359375	0.218414306640625	5.23651123046875E-07
0.219573974609375	0.2208251953125	5.4071044921875E-07
0.222015380859375	0.22332763671875	5.562744140625E-07
0.224456787109375	0.225799560546875	5.70831298828125E-07
0.226898193359375	0.228363037109375	5.83038330078125E-07
0.229339599609375	0.2308349609375	5.99700927734375E-07
0.231781005859375	0.233154296875	6.1517333984375E-07
0.234222412109375	0.23468017578125	6.298828125E-07
0.236663818359375	0.237213134765625	6.4697265625E-07
0.239105224609375	0.239654541015625	6.6070556640625E-07
0.241546630859375	0.2421875	6.756591796875E-07
0.243988037109375	0.24462890625	6.884765625E-07
0.246429443359375	0.24700927734375	7.061767578125E-07
0.248870849609375	0.249542236328125	7.2052001953125E-07
0.251312255859375	0.251953125	7.3638916015625E-07
0.253753662109375	0.25439453125	7.5103759765625E-07
0.256195068359375	0.256683349609375	7.6568603515625E-07
0.258636474609375	0.259185791015625	7.8125E-07
0.261077880859375	0.261688232421875	7.9803466796875E-07
0.263519287109375	0.26416015625	8.1451416015625E-07
0.265960693359375	0.266571044921875	8.28857421875E-07
0.268402099609375	0.26904296875	8.43505859375E-07
0.270843505859375	0.271484375	8.612060546875E-07
0.273284912109375	0.27386474609375	8.807373046875E-07
0.275726318359375	0.2763671875	8.9508056640625E-07
0.278167724609375	0.27880859375	9.1339111328125E-07
0.280609130859375	0.28125	9.2803955078125E-07
0.283050537109375	0.28369140625	9.4482421875E-07
0.285491943359375	0.2862548828125	9.6282958984375E-07
0.287933349609375	0.28857421875	9.771728515625E-07
0.290374755859375	0.290985107421875	9.9395751953125E-07
0.292816162109375	0.293487548828125	1.00982666015625E-06
0.295257568359375	0.2958984375	1.02691650390625E-06
0.297698974609375	0.298309326171875	1.04461669921875E-06
0.300140380859375	0.30078125	1.063232421875E-06
0.302581787109375	0.303375244140625	1.08428955078125E-06
0.305023193359375	0.3056640625	1.09954833984375E-06
0.307464599609375	0.308135986328125	1.1181640625E-06
0.309906005859375	0.310577392578125	1.13555908203125E-06
0.312347412109375	0.313018798828125	1.1541748046875E-06
0.314788818359375	0.31549072265625	1.1749267578125E-06
0.317230224609375	0.317901611328125	1.19293212890625E-06
0.319671630859375	0.32037353515625	1.21246337890625E-06
0.322113037109375	0.322845458984375	1.2298583984375E-06
0.324554443359375	0.3251953125	1.25213623046875E-06
0.326995849609375	0.32769775390625	1.26983642578125E-06
0.329437255859375	0.330078125	1.29058837890625E-06
0.331878662109375	0.332611083984375	1.3092041015625E-06
0.334320068359375	0.3349609375	1.3275146484375E-06
0.336761474609375	0.337493896484375	1.34735107421875E-06
0.339202880859375	0.3399658203125	1.3702392578125E-06
0.341644287109375	0.342376708984375	1.39251708984375E-06
0.344085693359375	0.34478759765625	1.4111328125E-06
0.346527099609375	0.347198486328125	1.43218994140625E-06
0.348968505859375	0.349639892578125	1.45477294921875E-06
0.351409912109375	0.35211181640625	1.47430419921875E-06
0.353851318359375	0.354583740234375	1.4947509765625E-06
0.356292724609375	0.35711669921875	1.51885986328125E-06
0.358734130859375	0.359527587890625	1.5423583984375E-06
0.361175537109375	0.361907958984375	1.563720703125E-06
0.363616943359375	0.364410400390625	1.58538818359375E-06
0.366058349609375	0.366790771484375	1.60888671875E-06
0.368499755859375	0.3692626953125	1.63330078125E-06
0.370941162109375	0.37176513671875	1.65679931640625E-06
0.373382568359375	0.374176025390625	1.678466796875E-06
0.375823974609375	0.3765869140625	1.70013427734375E-06
0.378265380859375	0.3790283203125	1.72454833984375E-06
0.380706787109375	0.3814697265625	1.74896240234375E-06
0.383148193359375	0.384002685546875	1.76910400390625E-06
0.385589599609375	0.386322021484375	1.79718017578125E-06
0.388031005859375	0.388763427734375	1.82281494140625E-06
0.390472412109375	0.391265869140625	1.845703125E-06
0.392913818359375	0.39373779296875	1.8707275390625E-06
0.395355224609375	0.396270751953125	1.89727783203125E-06
0.397796630859375	0.39862060546875	1.91925048828125E-06
0.400238037109375	0.401123046875	1.94366455078125E-06
0.402679443359375	0.403594970703125	1.96929931640625E-06
0.405120849609375	0.405975341796875	1.99371337890625E-06
0.407562255859375	0.408447265625	2.01751708984375E-06
0.410003662109375	0.41094970703125	2.044677734375E-06
0.412445068359375	0.413299560546875	2.06939697265625E-06
0.414886474609375	0.415771484375	2.09136962890625E-06
0.417327880859375	0.418243408203125	2.12005615234375E-06
0.419769287109375	0.42071533203125	2.1441650390625E-06
0.422210693359375	0.42315673828125	2.16766357421875E-06
0.424652099609375	0.425567626953125	2.196044921875E-06
0.427093505859375	0.42791748046875	2.2210693359375E-06
0.429534912109375	0.43048095703125	2.24700927734375E-06
0.431976318359375	0.432952880859375	2.27783203125E-06
0.434417724609375	0.43548583984375	2.3028564453125E-06
0.436859130859375	0.437774658203125	2.33154296875E-06
0.439300537109375	0.44024658203125	2.36053466796875E-06
0.441741943359375	0.442779541015625	2.39013671875E-06
0.444183349609375	0.44512939453125	2.4176025390625E-06
0.446624755859375	0.44757080078125	2.44903564453125E-06
0.449066162109375	0.450042724609375	2.4798583984375E-06
0.451507568359375	0.452484130859375	2.5048828125E-06
0.453948974609375	0.454864501953125	2.53326416015625E-06
0.456390380859375	0.457427978515625	2.568359375E-06
0.458831787109375	0.459808349609375	2.6019287109375E-06
0.461273193359375	0.46221923828125	2.6275634765625E-06
0.463714599609375	0.46466064453125	2.666015625E-06
0.466156005859375	0.46722412109375	2.69775390625E-06
0.468597412109375	0.4696044921875	2.73193359375E-06
0.471038818359375	0.47210693359375	2.7685546875E-06
0.473480224609375	0.474578857421875	2.80303955078125E-06
0.475921630859375	0.477020263671875	2.8436279296875E-06
0.478363037109375	0.4793701171875	2.879638671875E-06
0.480804443359375	0.481903076171875	2.92022705078125E-06
0.483245849609375	0.484344482421875	2.95928955078125E-06
0.485687255859375	0.486785888671875	3.0035400390625E-06
0.488128662109375	0.489288330078125	3.0450439453125E-06
0.490570068359375	0.491729736328125	3.0902099609375E-06
0.493011474609375	0.494110107421875	3.1353759765625E-06
0.495452880859375	0.496612548828125	3.1884765625E-06
0.497894287109375	0.499114990234375	3.238525390625E-06
0.500335693359375	0.50146484375	3.28643798828125E-06
0.502777099609375	0.503814697265625	3.33831787109375E-06
0.505218505859375	0.50628662109375	3.39752197265625E-06
0.507659912109375	0.5089111328125	3.45123291015625E-06
0.510101318359375	0.51123046875	3.5223388671875E-06
0.512542724609375	0.513702392578125	3.585205078125E-06
0.514984130859375	0.516204833984375	3.662109375E-06
0.517425537109375	0.51873779296875	3.7335205078125E-06
0.519866943359375	0.5211181640625	3.81561279296875E-06
0.522308349609375	0.52349853515625	3.89678955078125E-06
0.524749755859375	0.525970458984375	3.992919921875E-06
0.527191162109375	0.52850341796875	4.0948486328125E-06
0.529632568359375	0.53094482421875	4.18792724609375E-06
0.532073974609375	0.533447265625	4.30206298828125E-06
0.534515380859375	0.535858154296875	4.43450927734375E-06
0.536956787109375	0.538330078125	4.57305908203125E-06
0.539398193359375	0.540740966796875	4.70794677734375E-06
0.541839599609375	0.543243408203125	4.86846923828125E-06
0.544281005859375	0.545684814453125	5.040283203125E-06
0.546722412109375	0.548187255859375	5.23101806640625E-06
0.549163818359375	0.55059814453125	5.4437255859375E-06
0.551605224609375	0.553192138671875	5.67535400390625E-06
0.554046630859375	0.55572509765625	5.91705322265625E-06
0.556488037109375	0.55810546875	6.19720458984375E-06
0.558929443359375	0.559661865234375	6.4910888671875E-06
0.561370849609375	0.56207275390625	6.82373046875E-06
0.563812255859375	0.564544677734375	7.1807861328125E-06
0.566253662109375	0.566986083984375	7.5775146484375E-06
0.568695068359375	0.569427490234375	7.99560546875E-06
0.571136474609375	0.57183837890625	8.4625244140625E-06
0.573577880859375	0.574432373046875	8.9813232421875E-06
0.576019287109375	0.57684326171875	9.5458984375E-06
0.578460693359375	0.579193115234375	1.01409912109375E-05
0.580902099609375	0.58160400390625	1.08123779296875E-05
0.583343505859375	0.584136962890625	1.153564453125E-05
0.585784912109375	0.586578369140625	1.23260498046875E-05
0.588226318359375	0.589019775390625	1.319580078125E-05
0.590667724609375	0.591552734375	1.41326904296875E-05
0.593109130859375	0.594024658203125	1.51397705078125E-05
0.595550537109375	0.596527099609375	1.6241455078125E-05
0.597991943359375	0.598968505859375	1.7425537109375E-05
0.600433349609375	0.601409912109375	1.871337890625E-05
0.602874755859375	0.603759765625	2.0098876953125E-05
0.605316162109375	0.60626220703125	2.16094970703125E-05
0.607757568359375	0.608734130859375	2.32208251953125E-05
0.610198974609375	0.61126708984375	2.49969482421875E-05
0.612640380859375	0.613739013671875	2.694091796875E-05
0.615081787109375	0.616302490234375	2.90069580078125E-05
0.617523193359375	0.618682861328125	3.12042236328125E-05
0.619964599609375	0.62109375	3.36181640625E-05
0.622406005859375	0.6236572265625	3.6236572265625E-05
0.624847412109375	0.62615966796875	3.90167236328125E-05
0.627288818359375	0.628662109375	4.20745849609375E-05
0.629730224609375	0.63116455078125	4.5361328125E-05
0.632171630859375	0.6336669921875	4.8883056640625E-05
0.634613037109375	0.636138916015625	5.26397705078125E-05
0.637054443359375	0.63861083984375	5.66650390625E-05
0.639495849609375	0.64111328125	6.09771728515625E-05
0.641937255859375	0.64276123046875	6.55517578125E-05
0.644378662109375	0.645172119140625	7.0465087890625E-05
0.646820068359375	0.647613525390625	7.5592041015625E-05
0.649261474609375	0.650054931640625	8.111572265625E-05
0.651702880859375	0.65252685546875	8.7005615234375E-05
0.654144287109375	0.654998779296875	9.320068359375E-05
0.656585693359375	0.65740966796875	9.967041015625E-05
0.659027099609375	0.659881591796875	0.0001065673828125
0.661468505859375	0.662322998046875	0.000113800048828125
0.663909912109375	0.664794921875	0.000121429443359375
0.666351318359375	0.667266845703125	0.000129425048828125
0.668792724609375	0.66973876953125	0.00013787841796875
0.671234130859375	0.67218017578125	0.00014666748046875
0.673675537109375	0.674591064453125	0.0001558837890625
0.676116943359375	0.677093505859375	0.00016546630859375
0.678558349609375	0.679534912109375	0.00017559814453125
0.680999755859375	0.681976318359375	0.00018609619140625
0.683441162109375	0.684478759765625	0.000197113037109375
0.685882568359375	0.686920166015625	0.000208404541015625
0.688323974609375	0.689361572265625	0.0002203369140625
0.690765380859375	0.691864013671875	0.00023297119140625
0.693206787109375	0.6943359375	0.00024591064453125
0.695648193359375	0.69671630859375	0.000259033203125
0.698089599609375	0.69927978515625	0.00027301025390625
0.700531005859375	0.701690673828125	0.00028753662109375
0.702972412109375	0.704193115234375	0.000302581787109375
0.705413818359375	0.706634521484375	0.000318359375
0.707855224609375	0.709136962890625	0.000334686279296875
0.710296630859375	0.711578369140625	0.00035150146484375
0.712738037109375	0.714111328125	0.00036883544921875
0.715179443359375	0.716522216796875	0.00038671875
0.717620849609375	0.719024658203125	0.000405181884765625
0.720062255859375	0.72149658203125	0.00042431640625
0.722503662109375	0.72406005859375	0.0004439697265625
0.724945068359375	0.72637939453125	0.0004639892578125
0.727386474609375	0.7288818359375	0.00048486328125
0.729827880859375	0.731475830078125	0.000506622314453125
0.732269287109375	0.73388671875	0.00052862548828125
0.734710693359375	0.736328125	0.000550933837890625
0.737152099609375	0.73883056640625	0.00057403564453125
0.739593505859375	0.74127197265625	0.00059796142578125
0.742034912109375	0.743804931640625	0.000622314453125
0.744476318359375	0.745269775390625	0.0006475830078125
0.746917724609375	0.747772216796875	0.0006732177734375
0.749359130859375	0.7501220703125	0.000699462890625
0.751800537109375	0.75286865234375	0.00072601318359375
0.754241943359375	0.75469970703125	0.00075286865234375
0.756683349609375	0.7574462890625	0.0007806396484375
0.759124755859375	0.7598876953125	0.00080902099609375
0.761566162109375	0.76263427734375	0.00083740234375
0.764007568359375	0.7647705078125	0.0008660888671875
0.766448974609375	0.76690673828125	0.00089569091796875
0.768890380859375	0.76934814453125	0.00092620849609375
0.771331787109375	0.7720947265625	0.00095703125
0.773773193359375	0.77484130859375	0.00098724365234375
0.776214599609375	0.777587890625	0.0010186767578125
0.778656005859375	0.77972412109375	0.00105072021484375
0.781097412109375	0.7818603515625	0.001082763671875
0.783538818359375	0.78399658203125	0.00111541748046875
0.785980224609375	0.78704833984375	0.0011492919921875
0.788421630859375	0.78887939453125	0.0011822509765625
0.790863037109375	0.79132080078125	0.00121551513671875
0.793304443359375	0.79376220703125	0.0012493896484375
0.795745849609375	0.7965087890625	0.00128387451171875
0.798187255859375	0.7989501953125	0.001318359375
0.800628662109375	0.802001953125	0.0013531494140625
0.798187255859375	0.7989501953125	0.00130859375
0.795745849609375	0.79620361328125	0.00126556396484375
0.793304443359375	0.7940673828125	0.0012237548828125
0.790863037109375	0.79132080078125	0.001182861328125
0.788421630859375	0.78857421875	0.0011431884765625
0.785980224609375	0.7861328125	0.00110504150390625
0.783538818359375	0.78460693359375	0.00106719970703125
0.781097412109375	0.78155517578125	0.00103118896484375
0.778656005859375	0.7794189453125	0.00099609375
0.776214599609375	0.7769775390625	0.0009619140625
0.773773193359375	0.77423095703125	0.0009283447265625
0.771331787109375	0.77239990234375	0.0008966064453125
0.768890380859375	0.7696533203125	0.000865478515625
0.766448974609375	0.76751708984375	0.00083465576171875
0.764007568359375	0.76446533203125	0.0008050537109375
0.761566162109375	0.76324462890625	0.0007769775390625
0.759124755859375	0.7598876953125	0.00074920654296875
0.756683349609375	0.75714111328125	0.0007220458984375
0.754241943359375	0.75531005859375	0.00069610595703125
0.751800537109375	0.75225830078125	0.00067047119140625
0.749359130859375	0.75042724609375	0.00064544677734375
0.746917724609375	0.74774169921875	0.00062164306640625
0.744476318359375	0.745269775390625	0.00059814453125
0.742034912109375	0.742828369140625	0.00057525634765625
0.739593505859375	0.74029541015625	0.00055328369140625
0.737152099609375	0.737945556640625	0.0005322265625
0.734710693359375	0.735504150390625	0.000511474609375
0.732269287109375	0.733154296875	0.000491607666015625
0.729827880859375	0.73065185546875	0.000472198486328125
0.727386474609375	0.728118896484375	0.0004530029296875
0.724945068359375	0.7257080078125	0.000434783935546875
0.722503662109375	0.723358154296875	0.000417449951171875
0.720062255859375	0.7215576171875	0.000400146484375
0.717620849609375	0.719024658203125	0.00038360595703125
0.715179443359375	0.716461181640625	0.00036761474609375
0.712738037109375	0.7139892578125	0.000352081298828125
0.710296630859375	0.71160888671875	0.00033697509765625
0.707855224609375	0.709075927734375	0.000322479248046875
0.705413818359375	0.70660400390625	0.000308349609375
0.702972412109375	0.704132080078125	0.00029486083984375
0.700531005859375	0.70166015625	0.000281829833984375
0.698089599609375	0.699249267578125	0.000269256591796875
0.695648193359375	0.69671630859375	0.000257080078125
0.693206787109375	0.69427490234375	0.00024554443359375
0.690765380859375	0.69183349609375	0.000234222412109375
0.688323974609375	0.6893310546875	0.00022314453125
0.685882568359375	0.6868896484375	0.000212677001953125
0.683441162109375	0.684478759765625	0.00020263671875
0.680999755859375	0.6820068359375	0.000192840576171875
0.678558349609375	0.6795654296875	0.000183502197265625
0.676116943359375	0.677032470703125	0.000174468994140625
0.673675537109375	0.6746826171875	0.000165771484375
0.671234130859375	0.672119140625	0.00015740966796875
0.668792724609375	0.66973876953125	0.000149383544921875
0.666351318359375	0.667236328125	0.0001416015625
0.663909912109375	0.664764404296875	0.00013421630859375
0.661468505859375	0.66229248046875	0.00012713623046875
0.659027099609375	0.659912109375	0.0001202392578125
0.656585693359375	0.657470703125	0.000113739013671875
0.654144287109375	0.65496826171875	0.0001075439453125
0.651702880859375	0.652618408203125	0.000101531982421875
0.649261474609375	0.6500244140625	9.564208984375E-05
0.646820068359375	0.647613525390625	9.014892578125E-05
0.644378662109375	0.645263671875	8.49609375E-05
0.641937255859375	0.64276123046875	7.9864501953125E-05
0.639495849609375	0.64031982421875	7.5042724609375E-05
0.637054443359375	0.637786865234375	7.0404052734375E-05
0.634613037109375	0.635406494140625	6.6009521484375E-05
0.632171630859375	0.6329345703125	6.1798095703125E-05
0.629730224609375	0.6304931640625	5.7830810546875E-05
0.627288818359375	0.62799072265625	5.401611328125E-05
0.624847412109375	0.6256103515625	5.0384521484375E-05
0.622406005859375	0.623138427734375	4.6978759765625E-05
0.619964599609375	0.620758056640625	4.373779296875E-05
0.617523193359375	0.61822509765625	4.06982421875E-05
0.615081787109375	0.615814208984375	3.7823486328125E-05
0.612640380859375	0.6134033203125	3.50860595703125E-05
0.610198974609375	0.6114501953125	3.250732421875E-05
0.607757568359375	0.608978271484375	3.00933837890625E-05
0.605316162109375	0.606353759765625	2.78472900390625E-05
0.602874755859375	0.603973388671875	2.5714111328125E-05
0.600433349609375	0.601470947265625	2.37213134765625E-05
0.597991943359375	0.59906005859375	2.183837890625E-05
0.595550537109375	0.5965576171875	2.0098876953125E-05
0.593109130859375	0.59405517578125	1.8463134765625E-05
0.590667724609375	0.591522216796875	1.6943359375E-05
0.588226318359375	0.589080810546875	1.55242919921875E-05
0.585784912109375	0.58660888671875	1.42120361328125E-05
0.583343505859375	0.584197998046875	1.30096435546875E-05
0.580902099609375	0.5816650390625	1.1883544921875E-05
0.578460693359375	0.5792236328125	1.08612060546875E-05
0.576019287109375	0.576812744140625	9.930419921875E-06
0.573577880859375	0.5743408203125	9.0576171875E-06
0.571136474609375	0.571929931640625	8.23974609375E-06
0.568695068359375	0.569366455078125	7.501220703125E-06
0.566253662109375	0.567047119140625	6.8389892578125E-06
0.563812255859375	0.564544677734375	6.2164306640625E-06
0.561370849609375	0.562103271484375	5.6427001953125E-06
0.558929443359375	0.5596923828125	5.1239013671875E-06
0.556488037109375	0.55718994140625	4.65087890625E-06
0.554046630859375	0.554779052734375	4.21356201171875E-06
0.551605224609375	0.552276611328125	3.81011962890625E-06
0.549163818359375	0.5498046875	3.44696044921875E-06
0.546722412109375	0.54736328125	3.10577392578125E-06
0.544281005859375	0.54534912109375	2.7996826171875E-06
0.541839599609375	0.542724609375	2.51800537109375E-06
0.539398193359375	0.54034423828125	2.265625E-06
0.536956787109375	0.53790283203125	2.0343017578125E-06
0.534515380859375	0.535430908203125	1.8212890625E-06
0.532073974609375	0.53289794921875	1.61956787109375E-06
0.529632568359375	0.530426025390625	1.4471435546875E-06
0.527191162109375	0.52801513671875	1.28082275390625E-06
0.524749755859375	0.52557373046875	1.1328125E-06
0.522308349609375	0.523101806640625	9.9761962890625E-07
0.519866943359375	0.520599365234375	8.7371826171875E-07
0.517425537109375	0.51812744140625	7.550048828125E-07
0.514984130859375	0.515625	6.5338134765625E-07
0.512542724609375	0.51324462890625	5.6060791015625E-07
0.510101318359375	0.510711669921875	4.69970703125E-07
0.507659912109375	0.50830078125	3.857421875E-07
0.505218505859375	0.505859375	3.082275390625E-07
0.502777099609375	0.503326416015625	2.4139404296875E-07
0.500335693359375	0.500946044921875	1.8157958984375E-07
0.497894287109375	0.4989013671875	1.31561279296875E-07
0.495452880859375	0.496002197265625	7.720947265625E-08
0.493011474609375	0.49371337890625	2.4627685546875E-08
0.490570068359375	0.491180419921875	-2.0904541015625E-08
0.488128662109375	0.488372802734375	-6.170654296875E-08
0.485687255859375	0.48626708984375	-1.004638671875E-07
0.483245849609375	0.483642578125	-1.3543701171875E-07
0.480804443359375	0.481170654296875	-1.7034912109375E-07
0.478363037109375	0.478485107421875	-1.99432373046875E-07
0.475921630859375	0.4761962890625	-2.2943115234375E-07
0.473480224609375	0.47381591796875	-2.5726318359375E-07
0.471038818359375	0.47125244140625	-2.85858154296875E-07
0.468597412109375	0.468719482421875	-3.0963134765625E-07
0.466156005859375	0.46624755859375	-3.297119140625E-07
0.463714599609375	0.463653564453125	-3.5308837890625E-07
0.461273193359375	0.461334228515625	-3.72589111328125E-07
0.458831787109375	0.4586181640625	-3.8818359375E-07
0.456390380859375	0.456390380859375	-4.090576171875E-07
0.453948974609375	0.45379638671875	-4.29229736328125E-07
0.451507568359375	0.45147705078125	-4.456787109375E-07
0.449066162109375	0.448944091796875	-4.55078125E-07
0.446624755859375	0.4464111328125	-4.71527099609375E-07
0.444183349609375	0.444061279296875	-4.87396240234375E-07
0.441741943359375	0.44140625	-5.01556396484375E-07
0.439300537109375	0.439056396484375	-5.1202392578125E-07
0.436859130859375	0.436553955078125	-5.29144287109375E-07
0.434417724609375	0.434173583984375	-5.384521484375E-07
0.431976318359375	0.431732177734375	-5.5157470703125E-07
0.429534912109375	0.429107666015625	-5.65460205078125E-07
0.427093505859375	0.426727294921875	-5.733642578125E-07
0.424652099609375	0.4241943359375	-5.85601806640625E-07
0.422210693359375	0.42181396484375	-5.93902587890625E-07
0.419769287109375	0.419525146484375	-6.03485107421875E-07
0.417327880859375	0.417755126953125	-6.1248779296875E-07
0.414886474609375	0.41534423828125	-6.268310546875E-07
0.412445068359375	0.412933349609375	-6.3568115234375E-07
0.410003662109375	0.41046142578125	-6.3751220703125E-07
0.407562255859375	0.408050537109375	-6.500244140625E-07
0.405120849609375	0.40557861328125	-6.573486328125E-07
0.402679443359375	0.403167724609375	-6.6558837890625E-07
0.400238037109375	0.400726318359375	-6.7718505859375E-07
0.397796630859375	0.39825439453125	-6.82373046875E-07
0.395355224609375	0.395782470703125	-6.9244384765625E-07
0.392913818359375	0.393402099609375	-7.025146484375E-07
0.390472412109375	0.39093017578125	-7.0953369140625E-07
0.388031005859375	0.388458251953125	-7.1685791015625E-07
0.385589599609375	0.386016845703125	-7.23876953125E-07
0.383148193359375	0.383575439453125	-7.2967529296875E-07
0.380706787109375	0.381134033203125	-7.36083984375E-07
0.378265380859375	0.378692626953125	-7.4432373046875E-07
0.375823974609375	0.376251220703125	-7.5225830078125E-07
0.373382568359375	0.37384033203125	-7.623291015625E-07
0.370941162109375	0.37139892578125	-7.6690673828125E-07
0.368499755859375	0.368988037109375	-7.733154296875E-07
0.366058349609375	0.366546630859375	-7.8033447265625E-07
0.363616943359375	0.36395263671875	-7.87353515625E-07
0.361175537109375	0.361541748046875	-7.92236328125E-07
0.358734130859375	0.359100341796875	-8.0078125E-07
0.356292724609375	0.356658935546875	-8.10546875E-07
0.353851318359375	0.354217529296875	-8.184814453125E-07
0.351409912109375	0.35174560546875	-8.251953125E-07
0.348968505859375	0.349334716796875	-8.3343505859375E-07
0.346527099609375	0.34686279296875	-8.38623046875E-07
0.344085693359375	0.344482421875	-8.45947265625E-07
0.341644287109375	0.342071533203125	-8.502197265625E-07
0.339202880859375	0.339630126953125	-8.5968017578125E-07
0.336761474609375	0.33709716796875	-8.6822509765625E-07
0.334320068359375	0.334716796875	-8.7554931640625E-07
0.331878662109375	0.332183837890625	-8.8043212890625E-07
0.329437255859375	0.329864501953125	-8.905029296875E-07
0.326995849609375	0.327362060546875	-8.984375E-07
0.324554443359375	0.324859619140625	-9.063720703125E-07
0.322113037109375	0.322479248046875	-9.124755859375E-07
0.319671630859375	0.32000732421875	-9.228515625E-07
0.317230224609375	0.317596435546875	-9.295654296875E-07
0.314788818359375	0.315185546875	-9.3719482421875E-07
0.312347412109375	0.312713623046875	-9.4329833984375E-07
0.309906005859375	0.310302734375	-9.4970703125E-07
0.307464599609375	0.307830810546875	-9.5916748046875E-07
0.305023193359375	0.305328369140625	-9.6710205078125E-07
0.302581787109375	0.30291748046875	-9.7137451171875E-07
0.300140380859375	0.300506591796875	-9.7503662109375E-07
0.297698974609375	0.29803466796875	-9.8876953125E-07
0.295257568359375	0.29559326171875	-9.9456787109375E-07
0.292816162109375	0.293182373046875	-1.00006103515625E-06
0.290374755859375	0.290679931640625	-1.0064697265625E-06
0.287933349609375	0.288299560546875	-1.01348876953125E-06
0.285491943359375	0.28594970703125	-1.021728515625E-06
0.283050537109375	0.283477783203125	-1.02630615234375E-06
0.280609130859375	0.280914306640625	-1.0302734375E-06
0.278167724609375	0.278472900390625	-1.03973388671875E-06
0.275726318359375	0.276031494140625	-1.0479736328125E-06
0.273284912109375	0.273590087890625	-1.0540771484375E-06
0.270843505859375	0.2711181640625	-1.05926513671875E-06
0.268402099609375	0.268798828125	-1.06597900390625E-06
0.265960693359375	0.2662353515625	-1.06781005859375E-06
0.263519287109375	0.263763427734375	-1.07208251953125E-06
0.261077880859375	0.26141357421875	-1.07635498046875E-06
0.258636474609375	0.258941650390625	-1.08642578125E-06
0.256195068359375	0.256439208984375	-1.08734130859375E-06
0.253753662109375	0.254119873046875	-1.09161376953125E-06
0.251312255859375	0.251617431640625	-1.09527587890625E-06
0.248870849609375	0.249237060546875	-1.099853515625E-06
0.246429443359375	0.246795654296875	-1.10260009765625E-06
0.243988037109375	0.244293212890625	-1.10595703125E-06
0.241546630859375	0.241790771484375	-1.1083984375E-06
0.239105224609375	0.239410400390625	-1.112060546875E-06
0.236663818359375	0.236968994140625	-1.1163330078125E-06
0.234222412109375	0.2344970703125	-1.119384765625E-06
0.231781005859375	0.232025146484375	-1.1212158203125E-06
0.229339599609375	0.229644775390625	-1.123046875E-06
0.226898193359375	0.227203369140625	-1.12762451171875E-06
0.224456787109375	0.224822998046875	-1.1224365234375E-06
0.222015380859375	0.222381591796875	-1.126708984375E-06
0.219573974609375	0.2198486328125	-1.129150390625E-06
0.217132568359375	0.2174072265625	-1.12884521484375E-06
0.214691162109375	0.214935302734375	-1.129150390625E-06
0.212249755859375	0.21246337890625	-1.1309814453125E-06
0.209808349609375	0.2100830078125	-1.1322021484375E-06
0.207366943359375	0.20770263671875	-1.13189697265625E-06
0.204925537109375	0.205230712890625	-1.13189697265625E-06
0.202484130859375	0.20269775390625	-1.1346435546875E-06
0.200042724609375	0.200347900390625	-1.13494873046875E-06
0.197601318359375	0.19781494140625	-1.13311767578125E-06
0.195159912109375	0.1954345703125	-1.13433837890625E-06
0.192718505859375	0.19293212890625	-1.13922119140625E-06
0.190277099609375	0.190521240234375	-1.1370849609375E-06
0.187835693359375	0.18804931640625	-1.13739013671875E-06
0.185394287109375	0.185699462890625	-1.13677978515625E-06
0.182952880859375	0.183197021484375	-1.1376953125E-06
0.180511474609375	0.180755615234375	-1.13800048828125E-06
0.178070068359375	0.178375244140625	-1.1395263671875E-06
0.175628662109375	0.175933837890625	-1.138916015625E-06
0.173187255859375	0.17352294921875	-1.1370849609375E-06
0.170745849609375	0.17108154296875	-1.1383056640625E-06
0.168304443359375	0.168609619140625	-1.1376953125E-06
0.165863037109375	0.166107177734375	-1.13800048828125E-06
0.163421630859375	0.163787841796875	-1.1419677734375E-06
0.160980224609375	0.161224365234375	-1.14044189453125E-06
0.158538818359375	0.158843994140625	-1.14349365234375E-06
0.156097412109375	0.156341552734375	-1.14227294921875E-06
0.153656005859375	0.1539306640625	-1.14288330078125E-06
0.151214599609375	0.1514892578125	-1.14593505859375E-06
0.148773193359375	0.148956298828125	-1.14532470703125E-06
0.146331787109375	0.14666748046875	-1.14349365234375E-06
0.143890380859375	0.144134521484375	-1.14410400390625E-06
0.141448974609375	0.141693115234375	-1.14776611328125E-06
0.139007568359375	0.139190673828125	-1.1468505859375E-06
0.136566162109375	0.13690185546875	-1.14776611328125E-06
0.134124755859375	0.134429931640625	-1.14990234375E-06
0.131683349609375	0.1318359375	-1.15020751953125E-06
0.129241943359375	0.12945556640625	-1.14990234375E-06
0.126800537109375	0.1270751953125	-1.151123046875E-06
0.124359130859375	0.1246337890625	-1.15386962890625E-06
0.121917724609375	0.122161865234375	-1.15325927734375E-06
0.119476318359375	0.11968994140625	-1.1541748046875E-06
0.117034912109375	0.1171875	-1.1566162109375E-06
0.114593505859375	0.11474609375	-1.156005859375E-06
0.112152099609375	0.112396240234375	-1.158447265625E-06
0.109710693359375	0.10986328125	-1.15936279296875E-06
0.107269287109375	0.10748291015625	-1.15875244140625E-06
0.104827880859375	0.105072021484375	-1.1590576171875E-06
0.102386474609375	0.102569580078125	-1.1627197265625E-06
0.099945068359375	0.10015869140625	-1.16546630859375E-06
0.097503662109375	0.09771728515625	-1.16302490234375E-06
0.095062255859375	0.095306396484375	-1.1639404296875E-06
0.092620849609375	0.092926025390625	-1.16973876953125E-06
0.090179443359375	0.090423583984375	-1.16790771484375E-06
0.087738037109375	0.087982177734375	-1.1712646484375E-06
0.090179443359375	0.0904541015625	-1.025390625E-06
0.092620849609375	0.092864990234375	-9.2529296875E-07
0.095062255859375	0.095367431640625	-8.441162109375E-07
0.097503662109375	0.0977783203125	-7.7545166015625E-07
0.099945068359375	0.1002197265625	-7.11669921875E-07
0.102386474609375	0.102630615234375	-6.549072265625E-07
0.104827880859375	0.105133056640625	-6.0302734375E-07
0.107269287109375	0.107635498046875	-5.5816650390625E-07
0.109710693359375	0.110015869140625	-5.1116943359375E-07
0.112152099609375	0.1124267578125	-4.6905517578125E-07
0.114593505859375	0.11492919921875	-4.266357421875E-07
0.117034912109375	0.1173095703125	-3.9031982421875E-07
0.119476318359375	0.11981201171875	-3.5308837890625E-07
0.121917724609375	0.122314453125	-3.192138671875E-07
0.124359130859375	0.124237060546875	-2.918701171875E-07
0.126800537109375	0.126708984375	-2.6043701171875E-07
0.129241943359375	0.129486083984375	-2.314453125E-07
0.131683349609375	0.131866455078125	-2.0513916015625E-07
0.134124755859375	0.13421630859375	-1.76025390625E-07
0.136566162109375	0.1368408203125	-1.49566650390625E-07
0.139007568359375	0.13922119140625	-1.260986328125E-07
0.141448974609375	0.141510009765625	-1.02386474609375E-07
0.143890380859375	0.14422607421875	-7.5897216796875E-08
0.146331787109375	0.14691162109375	-5.4718017578125E-08
0.148773193359375	0.1492919921875	-3.143310546875E-08
0.151214599609375	0.1514892578125	-9.46044921875E-09
0.153656005859375	0.154144287109375	1.385498046875E-08
0.156097412109375	0.1566162109375	3.5797119140625E-08
0.158538818359375	0.159088134765625	5.5755615234375E-08
0.160980224609375	0.1614990234375	7.720947265625E-08
0.163421630859375	0.163787841796875	9.9517822265625E-08
0.165863037109375	0.16650390625	1.175537109375E-07
0.168304443359375	0.168853759765625	1.334228515625E-07
0.170745849609375	0.17138671875	1.52435302734375E-07
0.173187255859375	0.17401123046875	1.7291259765625E-07
0.175628662109375	0.176300048828125	1.9134521484375E-07
0.178070068359375	0.178863525390625	2.073974609375E-07
0.180511474609375	0.1812744140625	2.244873046875E-07
0.182952880859375	0.183807373046875	2.4371337890625E-07
0.185394287109375	0.186370849609375	2.56591796875E-07
0.187835693359375	0.188812255859375	2.74810791015625E-07
0.190277099609375	0.191131591796875	2.90130615234375E-07
0.192718505859375	0.193756103515625	3.08441162109375E-07
0.195159912109375	0.196075439453125	3.27239990234375E-07
0.197601318359375	0.19873046875	3.40484619140625E-07
0.200042724609375	0.201019287109375	3.59527587890625E-07
0.202484130859375	0.203582763671875	3.7274169921875E-07
0.204925537109375	0.206024169921875	3.9129638671875E-07
0.207366943359375	0.208343505859375	4.066162109375E-07
0.209808349609375	0.21087646484375	4.21356201171875E-07
0.212249755859375	0.21343994140625	4.37591552734375E-07
0.214691162109375	0.21600341796875	4.52301025390625E-07
0.217132568359375	0.21826171875	4.66766357421875E-07
0.219573974609375	0.220855712890625	4.81536865234375E-07
0.222015380859375	0.223236083984375	4.99237060546875E-07
0.224456787109375	0.225799560546875	5.162353515625E-07
0.226898193359375	0.228240966796875	5.2911376953125E-07
0.229339599609375	0.230621337890625	5.4425048828125E-07
0.231781005859375	0.2330322265625	5.60394287109375E-07
0.234222412109375	0.235626220703125	5.7672119140625E-07
0.236663818359375	0.23822021484375	5.91400146484375E-07
0.239105224609375	0.24066162109375	6.0888671875E-07
0.241546630859375	0.2421875	6.2347412109375E-07
0.243988037109375	0.24462890625	6.4117431640625E-07
0.246429443359375	0.246978759765625	6.55517578125E-07
0.248870849609375	0.2493896484375	6.7169189453125E-07
0.251312255859375	0.251861572265625	6.866455078125E-07
0.253753662109375	0.254364013671875	7.025146484375E-07
0.256195068359375	0.2567138671875	7.16552734375E-07
0.258636474609375	0.25927734375	7.2998046875E-07
0.261077880859375	0.261688232421875	7.4798583984375E-07
0.263519287109375	0.26409912109375	7.623291015625E-07
0.265960693359375	0.2664794921875	7.7880859375E-07
0.268402099609375	0.268951416015625	7.952880859375E-07
0.270843505859375	0.27142333984375	8.1146240234375E-07
0.273284912109375	0.273834228515625	8.28857421875E-07
0.275726318359375	0.2762451171875	8.477783203125E-07
0.278167724609375	0.278778076171875	8.6181640625E-07
0.280609130859375	0.281219482421875	8.7921142578125E-07
0.283050537109375	0.28363037109375	8.9508056640625E-07
0.285491943359375	0.286163330078125	9.130859375E-07
0.287933349609375	0.288604736328125	9.307861328125E-07
0.290374755859375	0.291015625	9.466552734375E-07
0.292816162109375	0.293426513671875	9.6466064453125E-07
0.295257568359375	0.2958984375	9.8052978515625E-07
0.297698974609375	0.298309326171875	9.9700927734375E-07
0.300140380859375	0.30084228515625	1.0186767578125E-06
0.302581787109375	0.30328369140625	1.03424072265625E-06
0.305023193359375	0.30572509765625	1.051025390625E-06
0.307464599609375	0.30810546875	1.07086181640625E-06
0.309906005859375	0.3106689453125	1.08612060546875E-06
0.312347412109375	0.31298828125	1.10748291015625E-06
0.314788818359375	0.315460205078125	1.1260986328125E-06
0.317230224609375	0.317901611328125	1.14501953125E-06
0.319671630859375	0.320281982421875	1.16546630859375E-06
0.322113037109375	0.322784423828125	1.185302734375E-06
0.324554443359375	0.3253173828125	1.20330810546875E-06
0.326995849609375	0.3277587890625	1.22100830078125E-06
0.329437255859375	0.330078125	1.23931884765625E-06
0.331878662109375	0.332611083984375	1.25946044921875E-06
0.334320068359375	0.334991455078125	1.2774658203125E-06
0.336761474609375	0.337432861328125	1.2982177734375E-06
0.339202880859375	0.33990478515625	1.32049560546875E-06
0.341644287109375	0.342315673828125	1.33941650390625E-06
0.344085693359375	0.344879150390625	1.35711669921875E-06
0.346527099609375	0.34722900390625	1.38031005859375E-06
0.348968505859375	0.349700927734375	1.4007568359375E-06
0.351409912109375	0.352081298828125	1.4215087890625E-06
0.353851318359375	0.35455322265625	1.4385986328125E-06
0.356292724609375	0.35699462890625	1.463623046875E-06
0.358734130859375	0.359588623046875	1.48773193359375E-06
0.361175537109375	0.361968994140625	1.50909423828125E-06
0.363616943359375	0.364410400390625	1.5313720703125E-06
0.366058349609375	0.36688232421875	1.551513671875E-06
0.368499755859375	0.369232177734375	1.5753173828125E-06
0.370941162109375	0.371734619140625	1.5960693359375E-06
0.373382568359375	0.374176025390625	1.6162109375E-06
0.375823974609375	0.37664794921875	1.6400146484375E-06
0.378265380859375	0.379119873046875	1.66290283203125E-06
0.380706787109375	0.381500244140625	1.68670654296875E-06
0.383148193359375	0.38397216796875	1.708984375E-06
0.385589599609375	0.386383056640625	1.7327880859375E-06
0.388031005859375	0.38873291015625	1.75506591796875E-06
0.390472412109375	0.3912353515625	1.778564453125E-06
0.392913818359375	0.393707275390625	1.80206298828125E-06
0.395355224609375	0.396148681640625	1.8280029296875E-06
0.397796630859375	0.39862060546875	1.85150146484375E-06
0.400238037109375	0.401123046875	1.87652587890625E-06
0.402679443359375	0.40350341796875	1.8988037109375E-06
0.405120849609375	0.405975341796875	1.9195556640625E-06
0.407562255859375	0.408447265625	1.9451904296875E-06
0.410003662109375	0.41082763671875	1.97052001953125E-06
0.412445068359375	0.413299560546875	1.9915771484375E-06
0.414886474609375	0.41571044921875	2.01690673828125E-06
0.417327880859375	0.418304443359375	2.042236328125E-06
0.419769287109375	0.42071533203125	2.06695556640625E-06
0.422210693359375	0.423095703125	2.08892822265625E-06
0.424652099609375	0.42559814453125	2.11456298828125E-06
0.427093505859375	0.427978515625	2.14263916015625E-06
0.429534912109375	0.430389404296875	2.16400146484375E-06
0.431976318359375	0.432861328125	2.193603515625E-06
0.434417724609375	0.435333251953125	2.2210693359375E-06
0.436859130859375	0.437835693359375	2.24639892578125E-06
0.439300537109375	0.44024658203125	2.27081298828125E-06
0.441741943359375	0.44268798828125	2.2991943359375E-06
0.444183349609375	0.445220947265625	2.32452392578125E-06
0.446624755859375	0.447509765625	2.3553466796875E-06
0.449066162109375	0.45001220703125	2.38616943359375E-06
0.451507568359375	0.45245361328125	2.40966796875E-06
0.453948974609375	0.45489501953125	2.4371337890625E-06
0.456390380859375	0.457366943359375	2.471923828125E-06
0.458831787109375	0.4598388671875	2.50030517578125E-06
0.461273193359375	0.462249755859375	2.528076171875E-06
0.463714599609375	0.46478271484375	2.56103515625E-06
0.466156005859375	0.467041015625	2.591552734375E-06
0.468597412109375	0.46954345703125	2.62298583984375E-06
0.471038818359375	0.472076416015625	2.65899658203125E-06
0.473480224609375	0.47454833984375	2.6953125E-06
0.475921630859375	0.477020263671875	2.7313232421875E-06
0.478363037109375	0.47943115234375	2.7655029296875E-06
0.480804443359375	0.48187255859375	2.79937744140625E-06
0.483245849609375	0.48431396484375	2.8411865234375E-06
0.485687255859375	0.48681640625	2.8814697265625E-06
0.488128662109375	0.4892578125	2.91961669921875E-06
0.490570068359375	0.49163818359375	2.95989990234375E-06
0.493011474609375	0.494110107421875	3.00537109375E-06
0.495452880859375	0.49664306640625	3.05084228515625E-06
0.497894287109375	0.4990234375	3.0975341796875E-06
0.500335693359375	0.501434326171875	3.1427001953125E-06
0.502777099609375	0.50384521484375	3.19122314453125E-06
0.505218505859375	0.506378173828125	3.2452392578125E-06
0.507659912109375	0.5087890625	3.2989501953125E-06
0.510101318359375	0.511199951171875	3.35723876953125E-06
0.512542724609375	0.513671875	3.42010498046875E-06
0.514984130859375	0.51611328125	3.4814453125E-06
0.517425537109375	0.518646240234375	3.548583984375E-06
0.519866943359375	0.521026611328125	3.6212158203125E-06
0.522308349609375	0.523468017578125	3.6956787109375E-06
0.524749755859375	0.52593994140625	3.77227783203125E-06
0.527191162109375	0.5284423828125	3.8568115234375E-06
0.529632568359375	0.53082275390625	3.946533203125E-06
0.532073974609375	0.533294677734375	4.0399169921875E-06
0.534515380859375	0.535797119140625	4.15924072265625E-06
0.536956787109375	0.538299560546875	4.268798828125E-06
0.539398193359375	0.54058837890625	4.3878173828125E-06
0.541839599609375	0.543121337890625	4.5208740234375E-06
0.544281005859375	0.545623779296875	4.666748046875E-06
0.546722412109375	0.548004150390625	4.82574462890625E-06
0.549163818359375	0.550537109375	4.99969482421875E-06
0.551605224609375	0.553131103515625	5.18402099609375E-06
0.554046630859375	0.55560302734375	5.3857421875E-06
0.556488037109375	0.5579833984375	5.6121826171875E-06
0.558929443359375	0.56048583984375	5.85357666015625E-06
0.561370849609375	0.563018798828125	6.1187744140625E-06
0.563812255859375	0.56451416015625	6.414794921875E-06
0.566253662109375	0.5670166015625	6.732177734375E-06
0.568695068359375	0.569427490234375	7.0648193359375E-06
0.571136474609375	0.5718994140625	7.440185546875E-06
0.573577880859375	0.574371337890625	7.867431640625E-06
0.576019287109375	0.5767822265625	8.319091796875E-06
0.578460693359375	0.579193115234375	8.795166015625E-06
0.580902099609375	0.581634521484375	9.326171875E-06
0.583343505859375	0.58416748046875	9.9029541015625E-06
0.585784912109375	0.586578369140625	1.05316162109375E-05
0.588226318359375	0.58905029296875	1.121826171875E-05
0.590667724609375	0.591522216796875	1.1968994140625E-05
0.593109130859375	0.593963623046875	1.27685546875E-05
0.595550537109375	0.596435546875	1.3623046875E-05
0.597991943359375	0.59893798828125	1.4556884765625E-05
0.600433349609375	0.60125732421875	1.55548095703125E-05
0.602874755859375	0.603729248046875	1.6644287109375E-05
0.605316162109375	0.606231689453125	1.7803955078125E-05
0.607757568359375	0.608734130859375	1.903076171875E-05
0.610198974609375	0.61114501953125	2.03826904296875E-05
0.612640380859375	0.613677978515625	2.18536376953125E-05
0.615081787109375	0.61614990234375	2.34161376953125E-05
0.617523193359375	0.6185302734375	2.5067138671875E-05
0.619964599609375	0.62103271484375	2.68585205078125E-05
0.622406005859375	0.623504638671875	2.87933349609375E-05
0.624847412109375	0.6259765625	3.08624267578125E-05
0.627288818359375	0.628509521484375	3.3087158203125E-05
0.629730224609375	0.631011962890625	3.54736328125E-05
0.632171630859375	0.63348388671875	3.80126953125E-05
0.634613037109375	0.63592529296875	4.07012939453125E-05
0.637054443359375	0.638458251953125	4.35760498046875E-05
0.639495849609375	0.640960693359375	4.66583251953125E-05
0.641937255859375	0.6434326171875	4.99267578125E-05
0.644378662109375	0.645965576171875	5.3387451171875E-05
0.646820068359375	0.648468017578125	5.699462890625E-05
0.649261474609375	0.65087890625	6.0894775390625E-05
0.651702880859375	0.652496337890625	6.5032958984375E-05
0.654144287109375	0.65496826171875	6.9366455078125E-05
0.656585693359375	0.65740966796875	7.3883056640625E-05
0.659027099609375	0.65985107421875	7.867431640625E-05
0.661468505859375	0.662261962890625	8.3648681640625E-05
0.663909912109375	0.66473388671875	8.8958740234375E-05
0.666351318359375	0.667144775390625	9.454345703125E-05
0.668792724609375	0.669647216796875	0.00010040283203125
0.671234130859375	0.672088623046875	0.0001064453125
0.673675537109375	0.674560546875	0.000112823486328125
0.676116943359375	0.676971435546875	0.000119476318359375
0.678558349609375	0.67950439453125	0.000126434326171875
0.680999755859375	0.681884765625	0.000133697509765625
0.683441162109375	0.684417724609375	0.000141265869140625
0.685882568359375	0.68682861328125	0.000149017333984375
0.688323974609375	0.68927001953125	0.000157257080078125
0.690765380859375	0.6917724609375	0.000165863037109375
0.693206787109375	0.69415283203125	0.000173797607421875
0.695648193359375	0.69659423828125	0.000183074951171875
0.698089599609375	0.6990966796875	0.000192901611328125
0.700531005859375	0.70159912109375	0.00020294189453125
0.702972412109375	0.704010009765625	0.000213287353515625
0.705413818359375	0.706451416015625	0.00022406005859375
0.707855224609375	0.708953857421875	0.00023516845703125
0.710296630859375	0.71136474609375	0.00024664306640625
0.712738037109375	0.7138671875	0.00025836181640625
0.715179443359375	0.716339111328125	0.00027056884765625
0.717620849609375	0.718719482421875	0.000283203125
0.720062255859375	0.7213134765625	0.000296142578125
0.722503662109375	0.7237548828125	0.000309600830078125
0.724945068359375	0.726165771484375	0.00032305908203125
0.727386474609375	0.7286376953125	0.00033697509765625
0.729827880859375	0.731109619140625	0.000352081298828125
0.732269287109375	0.733612060546875	0.0003671875
0.734710693359375	0.736114501953125	0.00038232421875
0.737152099609375	0.738433837890625	0.00039801025390625
0.739593505859375	0.740966796875	0.000414337158203125
0.742034912109375	0.743438720703125	0.000430999755859375
0.744476318359375	0.745941162109375	0.000447998046875
0.746917724609375	0.74737548828125	0.000465545654296875
0.749359130859375	0.750732421875	0.000483428955078125
0.751800537109375	0.7525634765625	0.000501556396484375
0.754241943359375	0.7550048828125	0.00052008056640625
0.756683349609375	0.75775146484375	0.00053900146484375
0.759124755859375	0.75958251953125	0.000558319091796875
0.761566162109375	0.7623291015625	0.000578094482421875
0.764007568359375	0.7647705078125	0.00059783935546875
0.766448974609375	0.7672119140625	0.00061834716796875
0.768890380859375	0.76934814453125	0.0006396484375
0.771331787109375	0.77239990234375	0.00066070556640625
0.773773193359375	0.7745361328125	0.0006817626953125
0.776214599609375	0.7769775390625	0.00070343017578125
0.778656005859375	0.7794189453125	0.0007257080078125
0.781097412109375	0.78125	0.00074798583984375
0.783538818359375	0.78399658203125	0.00077056884765625
0.785980224609375	0.78643798828125	0.00079376220703125
0.788421630859375	0.78948974609375	0.00081695556640625
0.790863037109375	0.7916259765625	0.0008404541015625
0.793304443359375	0.79376220703125	0.0008642578125
0.795745849609375	0.797119140625	0.00088775634765625
0.798187255859375	0.79864501953125	0.000911865234375
0.800628662109375	0.8013916015625	0.00093658447265625
0.798187255859375	0.79833984375	0.000904541015625
0.795745849609375	0.7958984375	0.00087371826171875
0.793304443359375	0.79376220703125	0.0008441162109375
0.790863037109375	0.79193115234375	0.00081512451171875
0.788421630859375	0.78887939453125	0.00078704833984375
0.785980224609375	0.7861328125	0.000760498046875
0.783538818359375	0.7843017578125	0.00073394775390625
0.781097412109375	0.78216552734375	0.0007086181640625
0.778656005859375	0.780029296875	0.00068389892578125
0.776214599609375	0.77667236328125	0.000660400390625
0.773773193359375	0.77362060546875	0.00063720703125
0.771331787109375	0.77178955078125	0.000615234375
0.768890380859375	0.76934814453125	0.00059326171875
0.766448974609375	0.76690673828125	0.0005718994140625
0.764007568359375	0.76446533203125	0.0005517578125
0.761566162109375	0.7623291015625	0.0005322265625
0.759124755859375	0.7598876953125	0.00051300048828125
0.756683349609375	0.75714111328125	0.000494354248046875
0.754241943359375	0.755615234375	0.000476226806640625
0.751800537109375	0.753173828125	0.000458770751953125
0.749359130859375	0.75018310546875	0.00044183349609375
0.746917724609375	0.7476806640625	0.0004254150390625
0.744476318359375	0.7459716796875	0.0004091796875
0.742034912109375	0.743377685546875	0.000393585205078125
0.739593505859375	0.740966796875	0.000378509521484375
0.737152099609375	0.738494873046875	0.000363922119140625
0.734710693359375	0.73602294921875	0.00034991455078125
0.732269287109375	0.733551025390625	0.000336395263671875
0.729827880859375	0.731109619140625	0.000323150634765625
0.727386474609375	0.72857666015625	0.000310272216796875
0.724945068359375	0.72613525390625	0.000297821044921875
0.722503662109375	0.723724365234375	0.0002860107421875
0.720062255859375	0.721160888671875	0.0002744140625
0.717620849609375	0.71868896484375	0.000263153076171875
0.715179443359375	0.71630859375	0.000252166748046875
0.712738037109375	0.7138671875	0.00024169921875
0.710296630859375	0.71136474609375	0.000231536865234375
0.707855224609375	0.70892333984375	0.000221649169921875
0.705413818359375	0.70648193359375	0.000212127685546875
0.702972412109375	0.703948974609375	0.000202880859375
0.700531005859375	0.701507568359375	0.00019403076171875
0.698089599609375	0.6990966796875	0.000185516357421875
0.695648193359375	0.69659423828125	0.00017724609375
0.693206787109375	0.694183349609375	0.00016943359375
0.690765380859375	0.69171142578125	0.0001617431640625
0.688323974609375	0.689208984375	0.000154205322265625
0.685882568359375	0.686767578125	0.000147064208984375
0.683441162109375	0.68438720703125	0.000140289306640625
0.680999755859375	0.681854248046875	0.000133636474609375
0.678558349609375	0.67950439453125	0.00012725830078125
0.676116943359375	0.67706298828125	0.000121124267578125
0.673675537109375	0.674652099609375	0.000115234375
0.671234130859375	0.672149658203125	0.000109588623046875
0.668792724609375	0.669647216796875	0.0001041259765625
0.666351318359375	0.6671142578125	9.8846435546875E-05
0.663909912109375	0.664703369140625	9.3780517578125E-05
0.661468505859375	0.66229248046875	8.8897705078125E-05
0.659027099609375	0.65985107421875	8.428955078125E-05
0.656585693359375	0.65740966796875	7.9833984375E-05
0.654144287109375	0.65496826171875	7.5653076171875E-05
0.651702880859375	0.652496337890625	7.1502685546875E-05
0.649261474609375	0.650054931640625	6.7535400390625E-05
0.646820068359375	0.647552490234375	6.3751220703125E-05
0.644378662109375	0.645111083984375	6.0211181640625E-05
0.641937255859375	0.6427001953125	5.67626953125E-05
0.639495849609375	0.640289306640625	5.3466796875E-05
0.637054443359375	0.6378173828125	5.0323486328125E-05
0.634613037109375	0.635345458984375	4.7320556640625E-05
0.632171630859375	0.632965087890625	4.444580078125E-05
0.629730224609375	0.630462646484375	4.17022705078125E-05
0.627288818359375	0.62799072265625	3.90625E-05
0.624847412109375	0.6256103515625	3.6578369140625E-05
0.622406005859375	0.623748779296875	3.426513671875E-05
0.619964599609375	0.62109375	3.20220947265625E-05
0.617523193359375	0.61859130859375	2.989501953125E-05
0.615081787109375	0.616241455078125	2.79144287109375E-05
0.612640380859375	0.61370849609375	2.59979248046875E-05
0.610198974609375	0.61126708984375	2.415771484375E-05
0.607757568359375	0.608795166015625	2.24578857421875E-05
0.605316162109375	0.6063232421875	2.086181640625E-05
0.602874755859375	0.6038818359375	1.9342041015625E-05
0.600433349609375	0.601318359375	1.79046630859375E-05
0.597991943359375	0.598876953125	1.6558837890625E-05
0.595550537109375	0.59649658203125	1.52923583984375E-05
0.593109130859375	0.59393310546875	1.41082763671875E-05
0.590667724609375	0.591583251953125	1.3006591796875E-05
0.588226318359375	0.589019775390625	1.19598388671875E-05
0.585784912109375	0.586578369140625	1.09893798828125E-05
0.583343505859375	0.584075927734375	1.009521484375E-05
0.580902099609375	0.5816650390625	9.2559814453125E-06
0.578460693359375	0.579193115234375	8.48388671875E-06
0.576019287109375	0.576812744140625	7.77587890625E-06
0.573577880859375	0.574249267578125	7.1136474609375E-06
0.571136474609375	0.57183837890625	6.4788818359375E-06
0.568695068359375	0.56939697265625	5.9173583984375E-06
0.566253662109375	0.56695556640625	5.4046630859375E-06
0.563812255859375	0.564483642578125	4.925537109375E-06
0.561370849609375	0.562042236328125	4.4769287109375E-06
0.558929443359375	0.559661865234375	4.06829833984375E-06
0.556488037109375	0.55718994140625	3.69415283203125E-06
0.554046630859375	0.554718017578125	3.3465576171875E-06
0.551605224609375	0.55279541015625	3.0255126953125E-06
0.549163818359375	0.550201416015625	2.73193359375E-06
0.546722412109375	0.547698974609375	2.4609375E-06
0.544281005859375	0.54522705078125	2.2161865234375E-06
0.541839599609375	0.542724609375	1.9964599609375E-06
0.539398193359375	0.54022216796875	1.7913818359375E-06
0.536956787109375	0.53790283203125	1.60614013671875E-06
0.534515380859375	0.535369873046875	1.4306640625E-06
0.532073974609375	0.5328369140625	1.26678466796875E-06
0.529632568359375	0.5303955078125	1.12091064453125E-06
0.527191162109375	0.527984619140625	9.8968505859375E-07
0.524749755859375	0.5255126953125	8.636474609375E-07
0.522308349609375	0.523040771484375	7.51953125E-07
0.519866943359375	0.52056884765625	6.4788818359375E-07
0.517425537109375	0.51806640625	5.548095703125E-07
0.514984130859375	0.515625	4.6356201171875E-07
0.512542724609375	0.513214111328125	3.80859375E-07
0.510101318359375	0.51068115234375	2.9998779296875E-07
0.507659912109375	0.50830078125	2.349853515625E-07
0.505218505859375	0.50579833984375	1.7120361328125E-07
0.502777099609375	0.503509521484375	1.15966796875E-07
0.500335693359375	0.5009765625	6.640625E-08
0.497894287109375	0.498443603515625	1.5167236328125E-08
0.495452880859375	0.496002197265625	-3.4576416015625E-08
0.493011474609375	0.493499755859375	-8.1329345703125E-08
0.490570068359375	0.490753173828125	-1.1676025390625E-07
0.488128662109375	0.488555908203125	-1.553955078125E-07
0.485687255859375	0.48602294921875	-1.920166015625E-07
0.483245849609375	0.48345947265625	-2.21588134765625E-07
0.480804443359375	0.48101806640625	-2.5250244140625E-07
0.478363037109375	0.478485107421875	-2.84027099609375E-07
0.475921630859375	0.47613525390625	-3.11309814453125E-07
0.473480224609375	0.473388671875	-3.3502197265625E-07
0.471038818359375	0.471099853515625	-3.62518310546875E-07
0.468597412109375	0.468475341796875	-3.8702392578125E-07
0.466156005859375	0.466217041015625	-4.063720703125E-07
0.463714599609375	0.46356201171875	-4.26727294921875E-07
0.461273193359375	0.4610595703125	-4.47113037109375E-07
0.458831787109375	0.458892822265625	-4.6087646484375E-07
0.456390380859375	0.456268310546875	-4.77447509765625E-07
0.453948974609375	0.45379638671875	-4.9871826171875E-07
0.451507568359375	0.4512939453125	-5.15167236328125E-07
0.449066162109375	0.44879150390625	-5.2606201171875E-07
0.446624755859375	0.446563720703125	-5.44891357421875E-07
0.444183349609375	0.443817138671875	-5.57159423828125E-07
0.441741943359375	0.44146728515625	-5.71197509765625E-07
0.439300537109375	0.4388427734375	-5.8392333984375E-07
0.436859130859375	0.43646240234375	-5.9722900390625E-07
0.434417724609375	0.434051513671875	-6.06414794921875E-07
0.431976318359375	0.43243408203125	-6.2225341796875E-07
0.429534912109375	0.42999267578125	-6.329345703125E-07
0.427093505859375	0.427581787109375	-6.4453125E-07
0.424652099609375	0.425048828125	-6.561279296875E-07
0.422210693359375	0.422576904296875	-6.6497802734375E-07
0.419769287109375	0.42034912109375	-6.7535400390625E-07
0.417327880859375	0.417816162109375	-6.829833984375E-07
0.414886474609375	0.415283203125	-6.94580078125E-07
0.412445068359375	0.412841796875	-7.037353515625E-07
0.410003662109375	0.410491943359375	-7.1014404296875E-07
0.407562255859375	0.407958984375	-7.196044921875E-07
0.405120849609375	0.405609130859375	-7.3150634765625E-07
0.402679443359375	0.403167724609375	-7.3760986328125E-07
0.400238037109375	0.400604248046875	-7.4737548828125E-07
0.397796630859375	0.398284912109375	-7.5408935546875E-07
0.395355224609375	0.39581298828125	-7.6507568359375E-07
0.392913818359375	0.393310546875	-7.7301025390625E-07
0.390472412109375	0.390838623046875	-7.8094482421875E-07
0.388031005859375	0.388397216796875	-7.91015625E-07
0.385589599609375	0.38604736328125	-7.97119140625E-07
0.383148193359375	0.38360595703125	-8.074951171875E-07
0.380706787109375	0.381134033203125	-8.1085205078125E-07
0.378265380859375	0.378692626953125	-8.2061767578125E-07
0.375823974609375	0.376190185546875	-8.3160400390625E-07
0.373382568359375	0.373748779296875	-8.3770751953125E-07
0.370941162109375	0.371337890625	-8.43505859375E-07
0.368499755859375	0.368865966796875	-8.5052490234375E-07
0.366058349609375	0.366485595703125	-8.5784912109375E-07
0.363616943359375	0.364013671875	-8.6517333984375E-07
0.361175537109375	0.36151123046875	-8.75244140625E-07
0.358734130859375	0.359222412109375	-8.80126953125E-07
0.356292724609375	0.356658935546875	-8.9019775390625E-07
0.353851318359375	0.354278564453125	-8.9996337890625E-07
0.351409912109375	0.35174560546875	-9.0484619140625E-07
0.348968505859375	0.349334716796875	-9.14306640625E-07
0.346527099609375	0.346923828125	-9.2041015625E-07
0.344085693359375	0.344390869140625	-9.2864990234375E-07
0.341644287109375	0.342071533203125	-9.344482421875E-07
0.339202880859375	0.339599609375	-9.4268798828125E-07
0.336761474609375	0.337127685546875	-9.5306396484375E-07
0.334320068359375	0.33465576171875	-9.619140625E-07
0.331878662109375	0.332244873046875	-9.6710205078125E-07
0.329437255859375	0.329864501953125	-9.75341796875E-07
0.326995849609375	0.327362060546875	-9.869384765625E-07
0.324554443359375	0.32501220703125	-9.89990234375E-07
0.322113037109375	0.322540283203125	-9.979248046875E-07
0.319671630859375	0.320068359375	-1.00494384765625E-06
0.317230224609375	0.317626953125	-1.01409912109375E-06
0.314788818359375	0.315155029296875	-1.0247802734375E-06
0.312347412109375	0.31268310546875	-1.03118896484375E-06
0.309906005859375	0.310272216796875	-1.04034423828125E-06
0.307464599609375	0.30780029296875	-1.04583740234375E-06
0.305023193359375	0.305328369140625	-1.05224609375E-06
0.302581787109375	0.302947998046875	-1.06231689453125E-06
0.300140380859375	0.300445556640625	-1.06781005859375E-06
0.297698974609375	0.298004150390625	-1.07940673828125E-06
0.295257568359375	0.29559326171875	-1.0845947265625E-06
0.292816162109375	0.293182373046875	-1.0906982421875E-06
0.290374755859375	0.290771484375	-1.09710693359375E-06
0.287933349609375	0.28826904296875	-1.10504150390625E-06
0.285491943359375	0.2857666015625	-1.11053466796875E-06
0.283050537109375	0.28338623046875	-1.11663818359375E-06
0.280609130859375	0.280853271484375	-1.12518310546875E-06
0.278167724609375	0.278411865234375	-1.1322021484375E-06
0.275726318359375	0.2760009765625	-1.14013671875E-06
0.273284912109375	0.2735595703125	-1.14593505859375E-06
0.270843505859375	0.271148681640625	-1.1529541015625E-06
0.268402099609375	0.268585205078125	-1.15570068359375E-06
0.265960693359375	0.266326904296875	-1.1639404296875E-06
0.263519287109375	0.263763427734375	-1.1676025390625E-06
0.261077880859375	0.2613525390625	-1.170654296875E-06
0.258636474609375	0.258880615234375	-1.1785888671875E-06
0.256195068359375	0.256500244140625	-1.182861328125E-06
0.253753662109375	0.254058837890625	-1.1846923828125E-06
0.251312255859375	0.251617431640625	-1.19140625E-06
0.248870849609375	0.24920654296875	-1.1962890625E-06
0.246429443359375	0.246795654296875	-1.19964599609375E-06
0.243988037109375	0.244232177734375	-1.19903564453125E-06
0.241546630859375	0.24188232421875	-1.20574951171875E-06
0.239105224609375	0.23944091796875	-1.20635986328125E-06
0.236663818359375	0.236907958984375	-1.212158203125E-06
0.234222412109375	0.234375	-1.21124267578125E-06
0.231781005859375	0.23199462890625	-1.2158203125E-06
0.229339599609375	0.22955322265625	-1.217041015625E-06
0.226898193359375	0.2271728515625	-1.2188720703125E-06
0.224456787109375	0.22467041015625	-1.21734619140625E-06
0.222015380859375	0.22222900390625	-1.2188720703125E-06
0.219573974609375	0.219879150390625	-1.22222900390625E-06
0.217132568359375	0.21734619140625	-1.22344970703125E-06
0.214691162109375	0.2149658203125	-1.2225341796875E-06
0.212249755859375	0.2125244140625	-1.2274169921875E-06
0.209808349609375	0.210113525390625	-1.224365234375E-06
0.207366943359375	0.207611083984375	-1.226806640625E-06
0.204925537109375	0.20513916015625	-1.2261962890625E-06
0.202484130859375	0.202728271484375	-1.22711181640625E-06
0.200042724609375	0.200347900390625	-1.226806640625E-06
0.197601318359375	0.1978759765625	-1.2274169921875E-06
0.195159912109375	0.19537353515625	-1.22802734375E-06
0.192718505859375	0.193023681640625	-1.22650146484375E-06
0.190277099609375	0.190582275390625	-1.2274169921875E-06
0.187835693359375	0.188079833984375	-1.226806640625E-06
0.185394287109375	0.185760498046875	-1.22650146484375E-06
0.182952880859375	0.1832275390625	-1.22650146484375E-06
0.180511474609375	0.1807861328125	-1.22711181640625E-06
0.178070068359375	0.17840576171875	-1.22802734375E-06
0.175628662109375	0.1759033203125	-1.22802734375E-06
0.173187255859375	0.173370361328125	-1.2261962890625E-06
0.170745849609375	0.170989990234375	-1.2286376953125E-06
0.168304443359375	0.16851806640625	-1.22894287109375E-06
0.165863037109375	0.166168212890625	-1.22711181640625E-06
0.163421630859375	0.163665771484375	-1.226806640625E-06
0.160980224609375	0.161285400390625	-1.2286376953125E-06
0.158538818359375	0.15875244140625	-1.22955322265625E-06
0.156097412109375	0.15625	-1.22833251953125E-06
0.153656005859375	0.153900146484375	-1.2298583984375E-06
0.151214599609375	0.151519775390625	-1.2310791015625E-06
0.148773193359375	0.148956298828125	-1.2286376953125E-06
0.146331787109375	0.146636962890625	-1.23199462890625E-06
0.143890380859375	0.14410400390625	-1.2322998046875E-06
0.141448974609375	0.14166259765625	-1.23321533203125E-06
0.139007568359375	0.13922119140625	-1.23291015625E-06
0.136566162109375	0.13677978515625	-1.231689453125E-06
0.134124755859375	0.13433837890625	-1.2353515625E-06
0.131683349609375	0.131927490234375	-1.23321533203125E-06
0.129241943359375	0.1295166015625	-1.23382568359375E-06
0.126800537109375	0.12701416015625	-1.23687744140625E-06
0.124359130859375	0.124664306640625	-1.239013671875E-06
0.121917724609375	0.1221923828125	-1.2384033203125E-06
0.119476318359375	0.11968994140625	-1.240234375E-06
0.117034912109375	0.1173095703125	-1.2420654296875E-06
0.114593505859375	0.114776611328125	-1.240234375E-06
0.112152099609375	0.112396240234375	-1.24114990234375E-06
0.109710693359375	0.10992431640625	-1.2432861328125E-06
0.107269287109375	0.107421875	-1.243896484375E-06
0.104827880859375	0.10504150390625	-1.24603271484375E-06
0.102386474609375	0.1026611328125	-1.25E-06
0.099945068359375	0.10009765625	-1.24786376953125E-06
0.097503662109375	0.09771728515625	-1.24969482421875E-06
0.095062255859375	0.095245361328125	-1.25244140625E-06
0.092620849609375	0.092803955078125	-1.25244140625E-06
0.090179443359375	0.09039306640625	-1.2554931640625E-06
0.087738037109375	0.087890625	-1.25579833984375E-06
0.090179443359375	0.09033203125	-1.11236572265625E-06
0.092620849609375	0.092864990234375	-1.01043701171875E-06
0.095062255859375	0.095367431640625	-9.24072265625E-07
0.097503662109375	0.097808837890625	-8.5418701171875E-07
0.099945068359375	0.10028076171875	-7.92236328125E-07
