Potential applied (V)	WE(1).Potential (V)	WE(1).Current (A)
0.102386474609375	0.10272216796875	6.74438476562497E-06
0.104827880859375	0.105224609375	6.80541992187506E-06
0.107269287109375	0.107666015625	6.80541992187506E-06
0.109710693359375	0.110137939453125	6.866455078125E-06
0.112152099609375	0.112518310546875	2.74658203125028E-08
0.114593505859375	0.114959716796875	5.79833984375028E-08
0.117034912109375	0.117401123046875	8.85009765625028E-08
0.119476318359375	0.119873046875	1.19018554687503E-07
0.121917724609375	0.122344970703125	1.43432617187494E-07
0.124359130859375	0.124755859375	1.83715820312499E-07
0.126800537109375	0.127227783203125	2.044677734375E-07
0.129241943359375	0.129730224609375	2.28271484375001E-07
0.131683349609375	0.13214111328125	2.46276855468749E-07
0.134124755859375	0.134552001953125	2.66418457031251E-07
0.136566162109375	0.13702392578125	3.3294677734375E-07
0.139007568359375	0.139434814453125	3.521728515625E-07
0.141448974609375	0.141876220703125	3.6773681640625E-07
0.143890380859375	0.14434814453125	3.8543701171875E-07
0.146331787109375	0.14678955078125	4.0191650390625E-07
0.148773193359375	0.149261474609375	4.144287109375E-07
0.151214599609375	0.151611328125	4.327392578125E-07
0.153656005859375	0.1541748046875	4.4586181640625E-07
0.156097412109375	0.156646728515625	4.6234130859375E-07
0.158538818359375	0.159088134765625	4.7607421875E-07
0.160980224609375	0.16241455078125	4.903564453125E-07
0.163421630859375	0.16461181640625	5.06256103515625E-07
0.165863037109375	0.16717529296875	5.17486572265625E-07
0.168304443359375	0.16961669921875	5.31341552734375E-07
0.170745849609375	0.172119140625	5.4498291015625E-07
0.173187255859375	0.174652099609375	5.56121826171875E-07
0.175628662109375	0.177093505859375	5.6585693359375E-07
0.178070068359375	0.179595947265625	5.76507568359375E-07
0.180511474609375	0.181854248046875	5.899658203125E-07
0.182952880859375	0.1844482421875	6.02081298828125E-07
0.185394287109375	0.185943603515625	6.1309814453125E-07
0.187835693359375	0.188446044921875	6.23779296875E-07
0.190277099609375	0.190826416015625	6.3934326171875E-07
0.192718505859375	0.1932373046875	6.5155029296875E-07
0.195159912109375	0.19561767578125	6.6436767578125E-07
0.197601318359375	0.198150634765625	6.744384765625E-07
0.200042724609375	0.200592041015625	6.890869140625E-07
0.202484130859375	0.203094482421875	7.0281982421875E-07
0.204925537109375	0.205535888671875	7.1533203125E-07
0.207366943359375	0.207916259765625	7.2784423828125E-07
0.209808349609375	0.210357666015625	7.4188232421875E-07
0.212249755859375	0.212799072265625	7.55615234375E-07
0.214691162109375	0.215362548828125	7.684326171875E-07
0.217132568359375	0.21771240234375	7.818603515625E-07
0.219573974609375	0.2200927734375	7.9681396484375E-07
0.222015380859375	0.222625732421875	8.1207275390625E-07
0.224456787109375	0.22509765625	8.270263671875E-07
0.226898193359375	0.227447509765625	8.4075927734375E-07
0.229339599609375	0.22991943359375	8.5540771484375E-07
0.231781005859375	0.232391357421875	8.709716796875E-07
0.234222412109375	0.234771728515625	8.8623046875E-07
0.236663818359375	0.237274169921875	9.02099609375E-07
0.239105224609375	0.23980712890625	9.197998046875E-07
0.241546630859375	0.242218017578125	9.381103515625E-07
0.243988037109375	0.24462890625	9.5428466796875E-07
0.246429443359375	0.2470703125	9.7198486328125E-07
0.248870849609375	0.249542236328125	9.881591796875E-07
0.251312255859375	0.251922607421875	1.00494384765625E-06
0.253753662109375	0.25445556640625	1.0247802734375E-06
0.256195068359375	0.2568359375	1.0418701171875E-06
0.258636474609375	0.259246826171875	1.06109619140625E-06
0.261077880859375	0.261749267578125	1.08306884765625E-06
0.263519287109375	0.26416015625	1.09954833984375E-06
0.265960693359375	0.266571044921875	1.12060546875E-06
0.268402099609375	0.269012451171875	1.13983154296875E-06
0.270843505859375	0.271514892578125	1.15997314453125E-06
0.273284912109375	0.273895263671875	1.18438720703125E-06
0.275726318359375	0.276397705078125	1.20513916015625E-06
0.278167724609375	0.27886962890625	1.23016357421875E-06
0.280609130859375	0.28131103515625	1.2518310546875E-06
0.283050537109375	0.283782958984375	1.27471923828125E-06
0.285491943359375	0.28619384765625	1.29791259765625E-06
0.287933349609375	0.288665771484375	1.32080078125E-06
0.290374755859375	0.29107666015625	1.34368896484375E-06
0.292816162109375	0.293548583984375	1.37054443359375E-06
0.295257568359375	0.29595947265625	1.39251708984375E-06
0.297698974609375	0.298431396484375	1.4166259765625E-06
0.300140380859375	0.3009033203125	1.4453125E-06
0.302581787109375	0.303375244140625	1.4697265625E-06
0.305023193359375	0.305755615234375	1.49658203125E-06
0.307464599609375	0.3082275390625	1.5234375E-06
0.309906005859375	0.310638427734375	1.55364990234375E-06
0.312347412109375	0.313140869140625	1.58050537109375E-06
0.314788818359375	0.315521240234375	1.6094970703125E-06
0.317230224609375	0.31805419921875	1.64154052734375E-06
0.319671630859375	0.3204345703125	1.6693115234375E-06
0.322113037109375	0.322845458984375	1.700439453125E-06
0.324554443359375	0.325347900390625	1.729736328125E-06
0.326995849609375	0.327850341796875	1.75994873046875E-06
0.329437255859375	0.330291748046875	1.7926025390625E-06
0.331878662109375	0.332672119140625	1.82342529296875E-06
0.334320068359375	0.3350830078125	1.85394287109375E-06
0.336761474609375	0.337554931640625	1.888427734375E-06
0.339202880859375	0.340087890625	1.9219970703125E-06
0.341644287109375	0.342498779296875	1.954345703125E-06
0.344085693359375	0.344940185546875	1.9854736328125E-06
0.346527099609375	0.347412109375	2.02056884765625E-06
0.348968505859375	0.349853515625	2.05352783203125E-06
0.351409912109375	0.352264404296875	2.088623046875E-06
0.353851318359375	0.354766845703125	2.12310791015625E-06
0.356292724609375	0.357147216796875	2.15728759765625E-06
0.358734130859375	0.35968017578125	2.1942138671875E-06
0.361175537109375	0.362060546875	2.2308349609375E-06
0.363616943359375	0.364501953125	2.26715087890625E-06
0.366058349609375	0.366973876953125	2.30621337890625E-06
0.368499755859375	0.369415283203125	2.3419189453125E-06
0.370941162109375	0.371917724609375	2.37548828125E-06
0.373382568359375	0.37432861328125	2.410888671875E-06
0.375823974609375	0.37677001953125	2.447509765625E-06
0.378265380859375	0.379241943359375	2.48809814453125E-06
0.380706787109375	0.381622314453125	2.52532958984375E-06
0.383148193359375	0.384124755859375	2.55950927734375E-06
0.385589599609375	0.38653564453125	2.5958251953125E-06
0.388031005859375	0.38897705078125	2.63275146484375E-06
0.390472412109375	0.391448974609375	2.6708984375E-06
0.392913818359375	0.3939208984375	2.708740234375E-06
0.395355224609375	0.39630126953125	2.7459716796875E-06
0.397796630859375	0.398834228515625	2.783203125E-06
0.400238037109375	0.401275634765625	2.82196044921875E-06
0.402679443359375	0.4036865234375	2.85980224609375E-06
0.405120849609375	0.406158447265625	2.89398193359375E-06
0.407562255859375	0.408660888671875	2.9302978515625E-06
0.410003662109375	0.4111328125	2.9681396484375E-06
0.412445068359375	0.413482666015625	3.00262451171875E-06
0.414886474609375	0.415863037109375	3.03924560546875E-06
0.417327880859375	0.41839599609375	3.074951171875E-06
0.419769287109375	0.420806884765625	3.111572265625E-06
0.422210693359375	0.4232177734375	3.14849853515625E-06
0.424652099609375	0.42578125	3.1829833984375E-06
0.427093505859375	0.428192138671875	3.221435546875E-06
0.429534912109375	0.43060302734375	3.25531005859375E-06
0.431976318359375	0.433074951171875	3.29193115234375E-06
0.434417724609375	0.435546875	3.3331298828125E-06
0.436859130859375	0.438018798828125	3.3673095703125E-06
0.439300537109375	0.4404296875	3.40728759765625E-06
0.441741943359375	0.442840576171875	3.44512939453125E-06
0.444183349609375	0.445404052734375	3.4814453125E-06
0.446624755859375	0.447845458984375	3.52081298828125E-06
0.449066162109375	0.450225830078125	3.5595703125E-06
0.451507568359375	0.452728271484375	3.59405517578125E-06
0.453948974609375	0.455047607421875	3.63555908203125E-06
0.456390380859375	0.457550048828125	3.677978515625E-06
0.458831787109375	0.460113525390625	3.71795654296875E-06
0.461273193359375	0.46246337890625	3.753662109375E-06
0.463714599609375	0.464874267578125	3.79913330078125E-06
0.466156005859375	0.467437744140625	3.83880615234375E-06
0.468597412109375	0.469696044921875	3.88763427734375E-06
0.471038818359375	0.47222900390625	3.935546875E-06
0.473480224609375	0.4747314453125	3.9801025390625E-06
0.475921630859375	0.477203369140625	4.027099609375E-06
0.478363037109375	0.4796142578125	4.07379150390625E-06
0.480804443359375	0.482086181640625	4.12322998046875E-06
0.483245849609375	0.484527587890625	4.17236328125E-06
0.485687255859375	0.487030029296875	4.22821044921875E-06
0.488128662109375	0.48944091796875	4.28436279296875E-06
0.490570068359375	0.491912841796875	4.3365478515625E-06
0.493011474609375	0.494293212890625	4.39666748046875E-06
0.495452880859375	0.49676513671875	4.4622802734375E-06
0.497894287109375	0.49932861328125	4.52301025390625E-06
0.500335693359375	0.501678466796875	4.58984375E-06
0.502777099609375	0.504150390625	4.66217041015625E-06
0.505218505859375	0.506500244140625	4.73663330078125E-06
0.507659912109375	0.509002685546875	4.814453125E-06
0.510101318359375	0.511505126953125	4.90203857421875E-06
0.512542724609375	0.513885498046875	4.99755859375E-06
0.514984130859375	0.516387939453125	5.09307861328125E-06
0.517425537109375	0.5189208984375	5.20294189453125E-06
0.519866943359375	0.5213623046875	5.31341552734375E-06
0.522308349609375	0.5238037109375	5.4364013671875E-06
0.524749755859375	0.5262451171875	5.5743408203125E-06
0.527191162109375	0.52874755859375	5.71533203125E-06
0.529632568359375	0.531158447265625	5.86944580078125E-06
0.532073974609375	0.53369140625	6.04156494140625E-06
0.534515380859375	0.535308837890625	6.243896484375E-06
0.536956787109375	0.537689208984375	6.4453125E-06
0.539398193359375	0.54010009765625	6.6650390625E-06
0.541839599609375	0.54254150390625	6.9183349609375E-06
0.544281005859375	0.54498291015625	7.1868896484375E-06
0.546722412109375	0.547454833984375	7.4951171875E-06
0.549163818359375	0.54986572265625	7.82470703125E-06
0.551605224609375	0.552337646484375	8.19091796875E-06
0.554046630859375	0.5548095703125	8.5845947265625E-06
0.556488037109375	0.5572509765625	9.02099609375E-06
0.558929443359375	0.559722900390625	9.4970703125E-06
0.561370849609375	0.562225341796875	1.00311279296875E-05
0.563812255859375	0.564666748046875	1.05987548828125E-05
0.566253662109375	0.567138671875	1.12213134765625E-05
0.568695068359375	0.56951904296875	1.18927001953125E-05
0.571136474609375	0.571929931640625	1.2646484375E-05
0.573577880859375	0.574432373046875	1.3482666015625E-05
0.576019287109375	0.576812744140625	1.4385986328125E-05
0.578460693359375	0.57928466796875	1.5350341796875E-05
0.580902099609375	0.581787109375	1.64306640625E-05
0.583343505859375	0.58428955078125	1.76116943359375E-05
0.585784912109375	0.586700439453125	1.8902587890625E-05
0.588226318359375	0.5892333984375	2.0318603515625E-05
0.590667724609375	0.59173583984375	2.1868896484375E-05
0.593109130859375	0.594146728515625	2.3553466796875E-05
0.595550537109375	0.5966796875	2.5390625E-05
0.597991943359375	0.59912109375	2.7374267578125E-05
0.600433349609375	0.6015625	2.9559326171875E-05
0.602874755859375	0.604034423828125	3.19244384765625E-05
0.605316162109375	0.606597900390625	3.4527587890625E-05
0.607757568359375	0.6090087890625	3.72833251953125E-05
0.610198974609375	0.611480712890625	4.03594970703125E-05
0.612640380859375	0.614044189453125	4.37591552734375E-05
0.615081787109375	0.616546630859375	4.7412109375E-05
0.617523193359375	0.618988037109375	5.1300048828125E-05
0.619964599609375	0.621551513671875	5.56060791015625E-05
0.622406005859375	0.624053955078125	6.02996826171875E-05
0.624847412109375	0.6256103515625	6.536865234375E-05
0.627288818359375	0.628021240234375	7.09228515625E-05
0.629730224609375	0.630523681640625	7.6934814453125E-05
0.632171630859375	0.633026123046875	8.3404541015625E-05
0.634613037109375	0.63543701171875	9.033203125E-05
0.637054443359375	0.63787841796875	9.783935546875E-05
0.639495849609375	0.640411376953125	0.00010589599609375
0.641937255859375	0.642852783203125	0.000114532470703125
0.644378662109375	0.645233154296875	0.000123779296875
0.646820068359375	0.647735595703125	0.000133453369140625
0.649261474609375	0.650115966796875	0.00014398193359375
0.651702880859375	0.65264892578125	0.00015521240234375
0.654144287109375	0.65521240234375	0.0001671142578125
0.656585693359375	0.65753173828125	0.00017938232421875
0.659027099609375	0.660003662109375	0.000192657470703125
0.661468505859375	0.662384033203125	0.000205291748046875
0.663909912109375	0.664947509765625	0.0002198486328125
0.666351318359375	0.6673583984375	0.00023577880859375
0.668792724609375	0.669921875	0.000252197265625
0.671234130859375	0.672393798828125	0.000269195556640625
0.673675537109375	0.674896240234375	0.0002869873046875
0.676116943359375	0.677337646484375	0.000305572509765625
0.678558349609375	0.679779052734375	0.000324981689453125
0.680999755859375	0.682281494140625	0.000345123291015625
0.683441162109375	0.68475341796875	0.000366058349609375
0.685882568359375	0.68719482421875	0.000387603759765625
0.688323974609375	0.689666748046875	0.0004102783203125
0.690765380859375	0.69219970703125	0.000434234619140625
0.693206787109375	0.6947021484375	0.00045849609375
0.695648193359375	0.696441650390625	0.0004835205078125
0.698089599609375	0.699615478515625	0.000509552001953125
0.700531005859375	0.70208740234375	0.000536376953125
0.702972412109375	0.704620361328125	0.000564453125
0.705413818359375	0.70709228515625	0.00059326171875
0.707855224609375	0.709564208984375	0.0006231689453125
0.710296630859375	0.711090087890625	0.000654296875
0.712738037109375	0.713531494140625	0.00068572998046875
0.715179443359375	0.71600341796875	0.00071807861328125
0.717620849609375	0.718414306640625	0.0007513427734375
0.720062255859375	0.720916748046875	0.0007855224609375
0.722503662109375	0.72332763671875	0.0008209228515625
0.724945068359375	0.725738525390625	0.0008563232421875
0.727386474609375	0.728271484375	0.0008929443359375
0.729827880859375	0.73077392578125	0.00093109130859375
0.732269287109375	0.733245849609375	0.00096954345703125
0.734710693359375	0.735565185546875	0.00100830078125
0.737152099609375	0.738128662109375	0.0010479736328125
0.739593505859375	0.74041748046875	0.00109375
0.742034912109375	0.742950439453125	0.00113067626953125
0.744476318359375	0.745452880859375	0.00117340087890625
0.746917724609375	0.747894287109375	0.001217041015625
0.749359130859375	0.75103759765625	0.00126068115234375
0.751800537109375	0.7525634765625	0.00130523681640625
0.754241943359375	0.7550048828125	0.00135009765625
0.756683349609375	0.7574462890625	0.00139617919921875
0.759124755859375	0.76019287109375	0.00144256591796875
0.761566162109375	0.7623291015625	0.001490478515625
0.764007568359375	0.76507568359375	0.00153778076171875
0.766448974609375	0.76751708984375	0.00158599853515625
0.768890380859375	0.76934814453125	0.00163482666015625
0.771331787109375	0.771484375	0.0016845703125
0.773773193359375	0.7745361328125	0.00173370361328125
0.776214599609375	0.7769775390625	0.00178314208984375
0.778656005859375	0.7794189453125	0.00183441162109375
0.781097412109375	0.78216552734375	0.00188568115234375
0.783538818359375	0.784912109375	0.00193695068359375
0.785980224609375	0.787353515625	0.0019891357421875
0.788421630859375	0.78857421875	0.002041015625
0.790863037109375	0.79193115234375	0.00209259033203125
0.793304443359375	0.7940673828125	0.00214569091796875
0.795745849609375	0.79620361328125	0.0021990966796875
0.798187255859375	0.7989501953125	0.00225311279296875
0.800628662109375	0.80169677734375	0.002305908203125
0.798187255859375	0.7989501953125	0.00223602294921875
0.795745849609375	0.7965087890625	0.00216766357421875
0.793304443359375	0.7940673828125	0.002099609375
0.790863037109375	0.7916259765625	0.00203338623046875
0.788421630859375	0.78857421875	0.00197021484375
0.785980224609375	0.78704833984375	0.00190704345703125
0.783538818359375	0.78399658203125	0.001845703125
0.781097412109375	0.7818603515625	0.00178619384765625
0.778656005859375	0.7794189453125	0.0017279052734375
0.776214599609375	0.7769775390625	0.001671142578125
0.773773193359375	0.77392578125	0.00161590576171875
0.771331787109375	0.77178955078125	0.00156280517578125
0.768890380859375	0.76995849609375	0.0015106201171875
0.766448974609375	0.76690673828125	0.0014593505859375
0.764007568359375	0.7647705078125	0.001409912109375
0.761566162109375	0.76202392578125	0.00136260986328125
0.759124755859375	0.7598876953125	0.00131561279296875
0.756683349609375	0.7568359375	0.0012701416015625
0.754241943359375	0.7550048828125	0.0012255859375
0.751800537109375	0.75225830078125	0.0011822509765625
0.749359130859375	0.74981689453125	0.00114013671875
0.746917724609375	0.747802734375	0.00109893798828125
0.744476318359375	0.745361328125	0.0010589599609375
0.742034912109375	0.742889404296875	0.0010198974609375
0.739593505859375	0.740478515625	0.00098236083984375
0.737152099609375	0.73797607421875	0.00094573974609375
0.734710693359375	0.735565185546875	0.0009100341796875
0.732269287109375	0.733123779296875	0.0008758544921875
0.729827880859375	0.73065185546875	0.00084259033203125
0.727386474609375	0.728240966796875	0.000809326171875
0.724945068359375	0.7257080078125	0.00077789306640625
0.722503662109375	0.723388671875	0.0007476806640625
0.720062255859375	0.7208251953125	0.0007177734375
0.717620849609375	0.718475341796875	0.0006890869140625
0.715179443359375	0.715972900390625	0.0006610107421875
0.712738037109375	0.713592529296875	0.00063385009765625
0.710296630859375	0.71112060546875	0.00060760498046875
0.707855224609375	0.7086181640625	0.00058197021484375
0.705413818359375	0.7061767578125	0.00055694580078125
0.702972412109375	0.703704833984375	0.00053314208984375
0.700531005859375	0.701263427734375	0.00050994873046875
0.698089599609375	0.6988525390625	0.00048748779296875
0.695648193359375	0.696441650390625	0.00046575927734375
0.693206787109375	0.694000244140625	0.00044512939453125
0.690765380859375	0.69158935546875	0.000424957275390625
0.688323974609375	0.689056396484375	0.00040509033203125
0.685882568359375	0.687255859375	0.000386138916015625
0.683441162109375	0.684783935546875	0.00036822509765625
0.680999755859375	0.68231201171875	0.00035064697265625
0.678558349609375	0.6798095703125	0.000333709716796875
0.676116943359375	0.677337646484375	0.000317474365234375
0.673675537109375	0.67486572265625	0.0003017578125
0.671234130859375	0.67236328125	0.00028656005859375
0.668792724609375	0.670013427734375	0.000271881103515625
0.666351318359375	0.66741943359375	0.0002576904296875
0.663909912109375	0.66497802734375	0.000244232177734375
0.661468505859375	0.66241455078125	0.000231231689453125
0.659027099609375	0.660064697265625	0.0002186279296875
0.656585693359375	0.657623291015625	0.00020654296875
0.654144287109375	0.655120849609375	0.000195159912109375
0.651702880859375	0.6527099609375	0.000184051513671875
0.649261474609375	0.65020751953125	0.000173248291015625
0.646820068359375	0.647705078125	0.000162994384765625
0.644378662109375	0.64532470703125	0.0001533203125
0.641937255859375	0.642852783203125	0.000143890380859375
0.639495849609375	0.640411376953125	0.000134857177734375
0.637054443359375	0.637939453125	0.000126129150390625
0.634613037109375	0.635467529296875	0.00011798095703125
0.632171630859375	0.633026123046875	0.00011016845703125
0.629730224609375	0.630523681640625	0.000102752685546875
0.627288818359375	0.6280517578125	9.564208984375E-05
0.624847412109375	0.62567138671875	8.8836669921875E-05
0.622406005859375	0.623199462890625	8.245849609375E-05
0.619964599609375	0.6207275390625	7.6416015625E-05
0.617523193359375	0.61822509765625	7.06787109375E-05
0.615081787109375	0.61590576171875	6.5399169921875E-05
0.612640380859375	0.6134033203125	6.0333251953125E-05
0.610198974609375	0.61090087890625	5.5511474609375E-05
