Potential applied (V)	WE(1).Potential (V)	WE(1).Current (A)
0.102386474609375	0.102752685546875	7.29370117187503E-06
0.104827880859375	0.105224609375	7.38525390624994E-06
0.107269287109375	0.107635498046875	7.53784179687494E-06
0.109710693359375	0.11004638671875	7.53784179687494E-06
0.112152099609375	0.112548828125	2.01416015624997E-07
0.114593505859375	0.114990234375	2.44140625E-07
0.117034912109375	0.117431640625	2.86865234375003E-07
0.119476318359375	0.11993408203125	3.23486328124997E-07
0.121917724609375	0.122283935546875	3.60107421875006E-07
0.124359130859375	0.124847412109375	4.04052734375E-07
0.126800537109375	0.127166748046875	4.32434082031249E-07
0.129241943359375	0.12969970703125	4.61730957031251E-07
0.131683349609375	0.13214111328125	4.8736572265625E-07
0.134124755859375	0.134521484375	5.11779785156249E-07
0.136566162109375	0.136993408203125	5.828857421875E-07
0.139007568359375	0.139434814453125	6.0394287109375E-07
0.141448974609375	0.141937255859375	6.2530517578125E-07
0.143890380859375	0.144317626953125	6.4849853515625E-07
0.146331787109375	0.146820068359375	6.6558837890625E-07
0.148773193359375	0.149261474609375	6.8328857421875E-07
0.151214599609375	0.1517333984375	7.0037841796875E-07
0.153656005859375	0.1541748046875	7.18994140625E-07
0.156097412109375	0.1566162109375	7.373046875E-07
0.158538818359375	0.15911865234375	7.5408935546875E-07
0.160980224609375	0.161529541015625	7.696533203125E-07
0.163421630859375	0.163970947265625	7.8460693359375E-07
0.165863037109375	0.16644287109375	7.99560546875E-07
0.168304443359375	0.16876220703125	8.14208984375E-07
0.170745849609375	0.1712646484375	8.2977294921875E-07
0.173187255859375	0.173736572265625	8.453369140625E-07
0.175628662109375	0.176239013671875	8.5968017578125E-07
0.178070068359375	0.178680419921875	8.709716796875E-07
0.180511474609375	0.181060791015625	8.880615234375E-07
0.182952880859375	0.183624267578125	9.0087890625E-07
0.185394287109375	0.18597412109375	9.1766357421875E-07
0.187835693359375	0.18841552734375	9.2864990234375E-07
0.190277099609375	0.19091796875	9.4482421875E-07
0.192718505859375	0.193389892578125	9.564208984375E-07
0.195159912109375	0.19573974609375	9.7137451171875E-07
0.197601318359375	0.198211669921875	9.844970703125E-07
0.200042724609375	0.200653076171875	9.991455078125E-07
0.202484130859375	0.203033447265625	1.01593017578125E-06
0.204925537109375	0.20550537109375	1.03057861328125E-06
0.207366943359375	0.207916259765625	1.04461669921875E-06
0.209808349609375	0.210418701171875	1.0595703125E-06
0.212249755859375	0.212890625	1.07391357421875E-06
0.214691162109375	0.21533203125	1.0882568359375E-06
0.217132568359375	0.217681884765625	1.10260009765625E-06
0.219573974609375	0.22015380859375	1.119384765625E-06
0.222015380859375	0.222686767578125	1.13525390625E-06
0.224456787109375	0.22503662109375	1.14959716796875E-06
0.226898193359375	0.227508544921875	1.16485595703125E-06
0.229339599609375	0.229888916015625	1.1822509765625E-06
0.231781005859375	0.232421875	1.2005615234375E-06
0.234222412109375	0.23492431640625	1.2158203125E-06
0.236663818359375	0.2373046875	1.23291015625E-06
0.239105224609375	0.23974609375	1.251220703125E-06
0.241546630859375	0.242218017578125	1.270751953125E-06
0.243988037109375	0.24456787109375	1.29119873046875E-06
0.246429443359375	0.2471923828125	1.3104248046875E-06
0.248870849609375	0.249603271484375	1.329345703125E-06
0.251312255859375	0.25201416015625	1.34857177734375E-06
0.253753662109375	0.254486083984375	1.368408203125E-06
0.256195068359375	0.25689697265625	1.38580322265625E-06
0.258636474609375	0.25933837890625	1.40899658203125E-06
0.261077880859375	0.261810302734375	1.43218994140625E-06
0.263519287109375	0.264312744140625	1.45477294921875E-06
0.265960693359375	0.2666015625	1.4752197265625E-06
0.268402099609375	0.26910400390625	1.500244140625E-06
0.270843505859375	0.271575927734375	1.52435302734375E-06
0.273284912109375	0.273956298828125	1.549072265625E-06
0.275726318359375	0.276458740234375	1.5740966796875E-06
0.278167724609375	0.278961181640625	1.59820556640625E-06
0.280609130859375	0.2813720703125	1.62628173828125E-06
0.283050537109375	0.2838134765625	1.6534423828125E-06
0.285491943359375	0.28619384765625	1.67938232421875E-06
0.287933349609375	0.288726806640625	1.7095947265625E-06
0.290374755859375	0.291168212890625	1.73492431640625E-06
0.292816162109375	0.293487548828125	1.7657470703125E-06
0.295257568359375	0.29608154296875	1.79351806640625E-06
0.297698974609375	0.2984619140625	1.82281494140625E-06
0.300140380859375	0.30096435546875	1.85638427734375E-06
0.302581787109375	0.30340576171875	1.88446044921875E-06
0.305023193359375	0.305755615234375	1.91864013671875E-06
0.307464599609375	0.30828857421875	1.94976806640625E-06
0.309906005859375	0.31072998046875	1.98150634765625E-06
0.312347412109375	0.313232421875	2.01385498046875E-06
0.314788818359375	0.315643310546875	2.0501708984375E-06
0.317230224609375	0.318023681640625	2.08740234375E-06
0.319671630859375	0.320526123046875	2.12249755859375E-06
0.322113037109375	0.322967529296875	2.15850830078125E-06
0.324554443359375	0.325469970703125	2.19482421875E-06
0.326995849609375	0.327911376953125	2.23541259765625E-06
0.329437255859375	0.33026123046875	2.27294921875E-06
0.331878662109375	0.332763671875	2.31353759765625E-06
0.334320068359375	0.33514404296875	2.349853515625E-06
0.336761474609375	0.33758544921875	2.39349365234375E-06
0.339202880859375	0.340118408203125	2.43408203125E-06
0.341644287109375	0.34246826171875	2.47650146484375E-06
0.344085693359375	0.345001220703125	2.51739501953125E-06
0.346527099609375	0.347381591796875	2.562255859375E-06
0.348968505859375	0.34991455078125	2.6055908203125E-06
0.351409912109375	0.352386474609375	2.65289306640625E-06
0.353851318359375	0.3548583984375	2.69866943359375E-06
0.356292724609375	0.357208251953125	2.74566650390625E-06
0.358734130859375	0.35980224609375	2.7935791015625E-06
0.361175537109375	0.362213134765625	2.84454345703125E-06
0.363616943359375	0.36468505859375	2.8948974609375E-06
0.366058349609375	0.3670654296875	2.94342041015625E-06
0.368499755859375	0.3695068359375	2.99774169921875E-06
0.370941162109375	0.37188720703125	3.04931640625E-06
0.373382568359375	0.37445068359375	3.10150146484375E-06
0.375823974609375	0.376922607421875	3.15673828125E-06
0.378265380859375	0.379302978515625	3.21502685546875E-06
0.380706787109375	0.381866455078125	3.26934814453125E-06
0.383148193359375	0.38409423828125	3.3251953125E-06
0.385589599609375	0.386688232421875	3.3868408203125E-06
0.388031005859375	0.38909912109375	3.4478759765625E-06
0.390472412109375	0.3914794921875	3.5076904296875E-06
0.392913818359375	0.39404296875	3.572998046875E-06
0.395355224609375	0.396514892578125	3.6376953125E-06
0.397796630859375	0.39892578125	3.7017822265625E-06
0.400238037109375	0.401458740234375	3.763427734375E-06
0.402679443359375	0.40380859375	3.83331298828125E-06
0.405120849609375	0.406341552734375	3.90045166015625E-06
0.407562255859375	0.408843994140625	3.96728515625E-06
0.410003662109375	0.41119384765625	4.03961181640625E-06
0.412445068359375	0.413665771484375	4.105224609375E-06
0.414886474609375	0.416107177734375	4.1796875E-06
0.417327880859375	0.41864013671875	4.25537109375E-06
0.419769287109375	0.421112060546875	4.3304443359375E-06
0.422210693359375	0.423431396484375	4.40093994140625E-06
0.424652099609375	0.4259033203125	4.47723388671875E-06
0.427093505859375	0.428314208984375	4.5550537109375E-06
0.429534912109375	0.43084716796875	4.63104248046875E-06
0.431976318359375	0.433349609375	4.7100830078125E-06
0.434417724609375	0.435791015625	4.7930908203125E-06
0.436859130859375	0.438262939453125	4.874267578125E-06
0.439300537109375	0.440765380859375	4.95452880859375E-06
0.441741943359375	0.44317626953125	5.03997802734375E-06
0.444183349609375	0.445556640625	5.12176513671875E-06
0.446624755859375	0.4481201171875	5.20721435546875E-06
0.449066162109375	0.450439453125	5.29266357421875E-06
0.451507568359375	0.45294189453125	5.37933349609375E-06
0.453948974609375	0.455322265625	5.462646484375E-06
0.456390380859375	0.457916259765625	5.55389404296875E-06
0.458831787109375	0.46038818359375	5.6463623046875E-06
0.461273193359375	0.462860107421875	5.73089599609375E-06
0.463714599609375	0.465179443359375	5.81695556640625E-06
0.466156005859375	0.467681884765625	5.91461181640625E-06
0.468597412109375	0.4700927734375	6.0052490234375E-06
0.471038818359375	0.471710205078125	6.103515625E-06
0.473480224609375	0.47418212890625	6.201171875E-06
0.475921630859375	0.47662353515625	6.292724609375E-06
0.478363037109375	0.47906494140625	6.3934326171875E-06
0.480804443359375	0.481536865234375	6.4910888671875E-06
0.483245849609375	0.483978271484375	6.5948486328125E-06
0.485687255859375	0.48638916015625	6.6864013671875E-06
0.488128662109375	0.4888916015625	6.787109375E-06
0.490570068359375	0.491241455078125	6.8878173828125E-06
0.493011474609375	0.49371337890625	6.988525390625E-06
0.495452880859375	0.496185302734375	7.1044921875E-06
0.497894287109375	0.498626708984375	7.2113037109375E-06
0.500335693359375	0.5009765625	7.318115234375E-06
0.502777099609375	0.503509521484375	7.43408203125E-06
0.505218505859375	0.505950927734375	7.5469970703125E-06
0.507659912109375	0.50830078125	7.672119140625E-06
0.510101318359375	0.5107421875	7.7972412109375E-06
0.512542724609375	0.51324462890625	7.9254150390625E-06
0.514984130859375	0.515716552734375	8.0657958984375E-06
0.517425537109375	0.518157958984375	8.203125E-06
0.519866943359375	0.5206298828125	8.355712890625E-06
0.522308349609375	0.52301025390625	8.514404296875E-06
0.524749755859375	0.52545166015625	8.6761474609375E-06
0.527191162109375	0.528045654296875	8.8470458984375E-06
0.529632568359375	0.530303955078125	9.0301513671875E-06
0.532073974609375	0.532806396484375	9.2376708984375E-06
0.534515380859375	0.53533935546875	9.454345703125E-06
0.536956787109375	0.5377197265625	9.686279296875E-06
0.539398193359375	0.54010009765625	9.9212646484375E-06
0.541839599609375	0.54254150390625	1.01837158203125E-05
0.544281005859375	0.545013427734375	1.0467529296875E-05
0.546722412109375	0.5474853515625	1.07757568359375E-05
0.549163818359375	0.54986572265625	1.11114501953125E-05
0.551605224609375	0.552398681640625	1.14776611328125E-05
0.554046630859375	0.554901123046875	1.1865234375E-05
0.556488037109375	0.55731201171875	1.22955322265625E-05
0.558929443359375	0.559814453125	1.27593994140625E-05
0.561370849609375	0.562225341796875	1.3250732421875E-05
0.563812255859375	0.564697265625	1.3800048828125E-05
0.566253662109375	0.567047119140625	1.43951416015625E-05
0.568695068359375	0.56951904296875	1.5020751953125E-05
0.571136474609375	0.571990966796875	1.57318115234375E-05
0.573577880859375	0.574493408203125	1.6510009765625E-05
0.576019287109375	0.576904296875	1.734619140625E-05
0.578460693359375	0.579345703125	1.8243408203125E-05
0.580902099609375	0.581787109375	1.922607421875E-05
0.583343505859375	0.584228515625	2.03033447265625E-05
0.585784912109375	0.5867919921875	2.14752197265625E-05
0.588226318359375	0.589202880859375	2.276611328125E-05
0.590667724609375	0.5916748046875	2.41729736328125E-05
0.593109130859375	0.594207763671875	2.569580078125E-05
0.595550537109375	0.596649169921875	2.7349853515625E-05
0.597991943359375	0.59912109375	2.91656494140625E-05
0.600433349609375	0.6016845703125	3.11279296875E-05
0.602874755859375	0.6041259765625	3.32794189453125E-05
0.605316162109375	0.6065673828125	3.5638427734375E-05
0.607757568359375	0.608978271484375	3.81500244140625E-05
0.610198974609375	0.611480712890625	4.09423828125E-05
0.612640380859375	0.614105224609375	4.40338134765625E-05
0.615081787109375	0.61651611328125	4.73663330078125E-05
0.617523193359375	0.6190185546875	5.0909423828125E-05
0.619964599609375	0.621490478515625	5.48583984375E-05
0.622406005859375	0.623992919921875	5.914306640625E-05
0.624847412109375	0.62652587890625	6.3812255859375E-05
0.627288818359375	0.628082275390625	6.8878173828125E-05
0.629730224609375	0.6304931640625	7.440185546875E-05
0.632171630859375	0.63299560546875	8.0352783203125E-05
0.634613037109375	0.635467529296875	8.673095703125E-05
0.637054443359375	0.637939453125	9.3658447265625E-05
0.639495849609375	0.640350341796875	0.00010107421875
0.641937255859375	0.642852783203125	0.000109039306640625
0.644378662109375	0.645233154296875	0.000117523193359375
0.646820068359375	0.647857666015625	0.0001258544921875
0.649261474609375	0.64996337890625	0.0001361083984375
0.651702880859375	0.652587890625	0.000146636962890625
0.654144287109375	0.654937744140625	0.00015753173828125
0.656585693359375	0.65765380859375	0.00016900634765625
0.659027099609375	0.660003662109375	0.00018109130859375
0.661468505859375	0.662841796875	0.00019403076171875
0.663909912109375	0.665130615234375	0.000207366943359375
0.666351318359375	0.667510986328125	0.00022174072265625
0.668792724609375	0.669952392578125	0.000236724853515625
0.671234130859375	0.672332763671875	0.000252288818359375
0.673675537109375	0.674896240234375	0.000269012451171875
0.676116943359375	0.677520751953125	0.000285980224609375
0.678558349609375	0.679718017578125	0.000304046630859375
0.680999755859375	0.6822509765625	0.000322967529296875
0.683441162109375	0.684722900390625	0.0003424072265625
0.685882568359375	0.687164306640625	0.000362335205078125
0.688323974609375	0.689544677734375	0.00038348388671875
0.690765380859375	0.692169189453125	0.000405609130859375
0.693206787109375	0.694671630859375	0.000428192138671875
0.695648193359375	0.6971435546875	0.000451690673828125
0.698089599609375	0.69970703125	0.000475830078125
0.700531005859375	0.702117919921875	0.000501251220703125
0.702972412109375	0.704559326171875	0.00052752685546875
0.705413818359375	0.7071533203125	0.000554595947265625
0.707855224609375	0.709625244140625	0.000582733154296875
0.710296630859375	0.71197509765625	0.000611328125
0.712738037109375	0.713592529296875	0.0006414794921875
0.715179443359375	0.71600341796875	0.00067169189453125
0.717620849609375	0.71844482421875	0.000703125
0.720062255859375	0.720916748046875	0.00073516845703125
0.722503662109375	0.723358154296875	0.00076812744140625
0.724945068359375	0.72576904296875	0.0008013916015625
0.727386474609375	0.728179931640625	0.000836181640625
0.729827880859375	0.730682373046875	0.00087188720703125
0.732269287109375	0.733154296875	0.00090850830078125
0.734710693359375	0.735504150390625	0.00094482421875
0.737152099609375	0.73797607421875	0.000982666015625
0.739593505859375	0.740478515625	0.0010211181640625
0.742034912109375	0.742950439453125	0.00106048583984375
0.744476318359375	0.745391845703125	0.00110076904296875
0.746917724609375	0.74786376953125	0.0011419677734375
0.749359130859375	0.7501220703125	0.00118316650390625
0.751800537109375	0.751953125	0.00122589111328125
0.754241943359375	0.75439453125	0.001268310546875
0.756683349609375	0.7568359375	0.00131103515625
0.759124755859375	0.7598876953125	0.0013555908203125
0.761566162109375	0.76202392578125	0.00139984130859375
0.764007568359375	0.7647705078125	0.001444091796875
0.766448974609375	0.7672119140625	0.00149078369140625
0.768890380859375	0.7696533203125	0.00153717041015625
0.771331787109375	0.77178955078125	0.00158416748046875
0.773773193359375	0.77484130859375	0.00163055419921875
0.776214599609375	0.7769775390625	0.0016778564453125
0.778656005859375	0.77972412109375	0.00172576904296875
0.781097412109375	0.7818603515625	0.0017742919921875
0.783538818359375	0.78399658203125	0.001822509765625
0.785980224609375	0.78643798828125	0.00187164306640625
0.788421630859375	0.7891845703125	0.00192108154296875
0.790863037109375	0.79193115234375	0.00197021484375
0.793304443359375	0.7940673828125	0.00202056884765625
0.795745849609375	0.797119140625	0.0020697021484375
0.798187255859375	0.7989501953125	0.00211822509765625
0.800628662109375	0.802001953125	0.00217071533203125
0.798187255859375	0.79864501953125	0.00210174560546875
0.795745849609375	0.79681396484375	0.00203369140625
0.793304443359375	0.7940673828125	0.00196685791015625
0.790863037109375	0.7916259765625	0.00190216064453125
0.788421630859375	0.78826904296875	0.00183929443359375
0.785980224609375	0.7867431640625	0.00177947998046875
0.783538818359375	0.78369140625	0.00171966552734375
0.781097412109375	0.78216552734375	0.00166168212890625
0.778656005859375	0.7794189453125	0.0016058349609375
0.776214599609375	0.7763671875	0.0015509033203125
0.773773193359375	0.77423095703125	0.00149749755859375
0.771331787109375	0.772705078125	0.001446533203125
0.768890380859375	0.76934814453125	0.00139678955078125
0.766448974609375	0.76690673828125	0.00134796142578125
0.764007568359375	0.76507568359375	0.00130035400390625
0.761566162109375	0.7623291015625	0.00125518798828125
0.759124755859375	0.75958251953125	0.0012103271484375
0.756683349609375	0.7574462890625	0.0011669921875
0.754241943359375	0.75531005859375	0.0011248779296875
0.751800537109375	0.7525634765625	0.001083984375
0.749359130859375	0.7501220703125	0.00104400634765625
0.746917724609375	0.747772216796875	0.0010052490234375
0.744476318359375	0.745330810546875	0.00096771240234375
0.742034912109375	0.74285888671875	0.00093109130859375
0.739593505859375	0.74041748046875	0.00089569091796875
0.737152099609375	0.738037109375	0.0008612060546875
0.734710693359375	0.735595703125	0.00082794189453125
0.732269287109375	0.733154296875	0.00079620361328125
0.729827880859375	0.730743408203125	0.0007647705078125
0.727386474609375	0.728179931640625	0.0007342529296875
0.724945068359375	0.72576904296875	0.00070465087890625
0.722503662109375	0.723419189453125	0.00067657470703125
0.720062255859375	0.720855712890625	0.00064910888671875
0.717620849609375	0.71844482421875	0.00062225341796875
0.715179443359375	0.71600341796875	0.00059661865234375
0.712738037109375	0.713592529296875	0.00057159423828125
0.710296630859375	0.711090087890625	0.0005474853515625
0.707855224609375	0.708648681640625	0.00052398681640625
0.705413818359375	0.70611572265625	0.0005010986328125
0.702972412109375	0.703765869140625	0.000479156494140625
0.700531005859375	0.70135498046875	0.000458038330078125
0.698089599609375	0.698822021484375	0.000437591552734375
0.695648193359375	0.6964111328125	0.00041796875
0.693206787109375	0.694000244140625	0.00039923095703125
0.690765380859375	0.692169189453125	0.000380706787109375
0.688323974609375	0.68951416015625	0.00036279296875
0.685882568359375	0.6871337890625	0.00034576416015625
0.683441162109375	0.684722900390625	0.000329620361328125
0.680999755859375	0.68218994140625	0.000313751220703125
0.678558349609375	0.679779052734375	0.00029852294921875
0.676116943359375	0.677276611328125	0.000283905029296875
0.673675537109375	0.6748046875	0.000269775390625
0.671234130859375	0.67230224609375	0.0002562255859375
0.668792724609375	0.669921875	0.000243194580078125
0.666351318359375	0.667327880859375	0.000230499267578125
0.663909912109375	0.6649169921875	0.000218414306640625
0.661468505859375	0.6624755859375	0.000206817626953125
0.659027099609375	0.65997314453125	0.000195648193359375
0.656585693359375	0.65753173828125	0.0001849365234375
0.654144287109375	0.655181884765625	0.0001748046875
0.651702880859375	0.65264892578125	0.0001649169921875
0.649261474609375	0.65008544921875	0.000155303955078125
0.646820068359375	0.647735595703125	0.000146209716796875
0.644378662109375	0.64532470703125	0.00013763427734375
0.641937255859375	0.642852783203125	0.00012933349609375
0.639495849609375	0.640411376953125	0.000121337890625
0.637054443359375	0.63787841796875	0.00011370849609375
0.634613037109375	0.635498046875	0.000106414794921875
0.632171630859375	0.633026123046875	9.94873046875E-05
0.629730224609375	0.630523681640625	9.2864990234375E-05
0.627288818359375	0.628082275390625	8.6517333984375E-05
0.624847412109375	0.625640869140625	8.050537109375E-05
0.622406005859375	0.623138427734375	7.48291015625E-05
0.619964599609375	0.6207275390625	6.94580078125E-05
0.617523193359375	0.618255615234375	6.4361572265625E-05
0.615081787109375	0.615814208984375	5.963134765625E-05
0.612640380859375	0.613372802734375	5.5084228515625E-05
0.610198974609375	0.610931396484375	5.078125E-05
0.607757568359375	0.608428955078125	4.67803955078125E-05
0.605316162109375	0.6060791015625	4.3084716796875E-05
0.602874755859375	0.603515625	3.95904541015625E-05
0.600433349609375	0.60113525390625	3.6309814453125E-05
0.597991943359375	0.5987548828125	3.3270263671875E-05
0.595550537109375	0.596771240234375	3.04840087890625E-05
0.593109130859375	0.594207763671875	2.78656005859375E-05
0.590667724609375	0.591705322265625	2.545166015625E-05
0.588226318359375	0.5892333984375	2.3193359375E-05
0.585784912109375	0.58673095703125	2.1142578125E-05
0.583343505859375	0.584197998046875	1.92596435546875E-05
0.580902099609375	0.581756591796875	1.7529296875E-05
0.578460693359375	0.57928466796875	1.59454345703125E-05
0.576019287109375	0.576873779296875	1.45233154296875E-05
0.573577880859375	0.574432373046875	1.3201904296875E-05
0.571136474609375	0.571929931640625	1.19842529296875E-05
0.568695068359375	0.5694580078125	1.0888671875E-05
0.566253662109375	0.5670166015625	9.918212890625E-06
0.563812255859375	0.5645751953125	9.0057373046875E-06
0.561370849609375	0.56207275390625	8.1787109375E-06
0.558929443359375	0.559661865234375	7.4310302734375E-06
0.556488037109375	0.557281494140625	6.75048828125E-06
0.554046630859375	0.55474853515625	6.134033203125E-06
0.551605224609375	0.552337646484375	5.5694580078125E-06
0.549163818359375	0.5498046875	5.0537109375E-06
0.546722412109375	0.54742431640625	4.583740234375E-06
0.544281005859375	0.544921875	4.1595458984375E-06
0.541839599609375	0.54241943359375	3.770751953125E-06
0.539398193359375	0.5400390625	3.421630859375E-06
0.536956787109375	0.537628173828125	3.104248046875E-06
0.534515380859375	0.53570556640625	2.80609130859375E-06
0.532073974609375	0.533050537109375	2.5335693359375E-06
0.529632568359375	0.53057861328125	2.29248046875E-06
0.527191162109375	0.528045654296875	2.07275390625E-06
0.524749755859375	0.52569580078125	1.86676025390625E-06
0.522308349609375	0.52325439453125	1.67724609375E-06
0.519866943359375	0.52069091796875	1.50421142578125E-06
0.517425537109375	0.5181884765625	1.3555908203125E-06
0.514984130859375	0.515716552734375	1.209716796875E-06
0.512542724609375	0.51324462890625	1.08062744140625E-06
0.510101318359375	0.51080322265625	9.5489501953125E-07
0.507659912109375	0.50836181640625	8.4869384765625E-07
0.505218505859375	0.505950927734375	7.4798583984375E-07
0.502777099609375	0.503509521484375	6.475830078125E-07
0.500335693359375	0.500946044921875	5.6884765625E-07
0.497894287109375	0.498565673828125	4.91943359375E-07
0.495452880859375	0.496246337890625	4.1534423828125E-07
0.493011474609375	0.493560791015625	3.375244140625E-07
0.490570068359375	0.491180419921875	2.7435302734375E-07
0.488128662109375	0.48870849609375	2.1942138671875E-07
0.485687255859375	0.486724853515625	1.71417236328125E-07
0.483245849609375	0.48406982421875	1.17431640625E-07
0.480804443359375	0.481353759765625	7.2265625E-08
0.478363037109375	0.47900390625	2.7435302734375E-08
0.475921630859375	0.476531982421875	-1.6815185546875E-08
0.473480224609375	0.473968505859375	-6.0028076171875E-08
0.471038818359375	0.47149658203125	-9.686279296875E-08
0.468597412109375	0.4686279296875	-1.32659912109375E-07
0.466156005859375	0.4664306640625	-1.67694091796875E-07
0.463714599609375	0.46417236328125	-1.96319580078125E-07
0.461273193359375	0.46148681640625	-2.2784423828125E-07
0.458831787109375	0.459014892578125	-2.5543212890625E-07
0.456390380859375	0.456390380859375	-2.78564453125E-07
0.453948974609375	0.454071044921875	-3.11614990234375E-07
0.451507568359375	0.45159912109375	-3.349609375E-07
0.449066162109375	0.4493408203125	-3.58062744140625E-07
0.446624755859375	0.44659423828125	-3.81378173828125E-07
0.444183349609375	0.444183349609375	-4.056396484375E-07
0.441741943359375	0.44183349609375	-4.24835205078125E-07
0.439300537109375	0.439178466796875	-4.432373046875E-07
0.436859130859375	0.43695068359375	-4.652099609375E-07
0.434417724609375	0.43414306640625	-4.84893798828125E-07
0.431976318359375	0.431854248046875	-5.02685546875E-07
0.429534912109375	0.4293212890625	-5.2264404296875E-07
0.427093505859375	0.426605224609375	-5.36712646484375E-07
0.424652099609375	0.424407958984375	-5.5548095703125E-07
0.422210693359375	0.421966552734375	-5.7037353515625E-07
0.419769287109375	0.419189453125	-5.8123779296875E-07
0.417327880859375	0.417083740234375	-6.00067138671875E-07
0.414886474609375	0.415374755859375	-6.1737060546875E-07
0.412445068359375	0.412994384765625	-6.3018798828125E-07
0.410003662109375	0.41046142578125	-6.3629150390625E-07
0.407562255859375	0.408050537109375	-6.5277099609375E-07
0.405120849609375	0.405548095703125	-6.6680908203125E-07
0.402679443359375	0.40313720703125	-6.77490234375E-07
0.400238037109375	0.400665283203125	-6.87255859375E-07
0.397796630859375	0.39813232421875	-6.988525390625E-07
0.395355224609375	0.39581298828125	-7.1044921875E-07
0.392913818359375	0.393280029296875	-7.220458984375E-07
0.390472412109375	0.390869140625	-7.318115234375E-07
0.388031005859375	0.388519287109375	-7.4127197265625E-07
0.385589599609375	0.385955810546875	-7.5042724609375E-07
0.383148193359375	0.383697509765625	-7.60498046875E-07
0.380706787109375	0.381103515625	-7.67822265625E-07
0.378265380859375	0.378631591796875	-7.72705078125E-07
0.375823974609375	0.376190185546875	-7.8704833984375E-07
0.373382568359375	0.373748779296875	-7.9559326171875E-07
0.370941162109375	0.371368408203125	-7.99560546875E-07
0.368499755859375	0.368896484375	-8.0810546875E-07
0.366058349609375	0.366485595703125	-8.172607421875E-07
0.363616943359375	0.36395263671875	-8.2611083984375E-07
0.361175537109375	0.361602783203125	-8.31298828125E-07
0.358734130859375	0.359222412109375	-8.4075927734375E-07
0.356292724609375	0.35675048828125	-8.465576171875E-07
0.353851318359375	0.354278564453125	-8.5601806640625E-07
0.351409912109375	0.35174560546875	-8.6334228515625E-07
0.348968505859375	0.34930419921875	-8.7066650390625E-07
0.346527099609375	0.346893310546875	-8.746337890625E-07
0.344085693359375	0.344451904296875	-8.82568359375E-07
0.341644287109375	0.342010498046875	-8.8775634765625E-07
0.339202880859375	0.339599609375	-8.9141845703125E-07
0.336761474609375	0.33709716796875	-9.0301513671875E-07
0.334320068359375	0.334625244140625	-9.0972900390625E-07
0.331878662109375	0.332305908203125	-9.136962890625E-07
0.329437255859375	0.32989501953125	-9.1888427734375E-07
0.326995849609375	0.327392578125	-9.2742919921875E-07
0.324554443359375	0.32501220703125	-9.3231201171875E-07
0.322113037109375	0.32244873046875	-9.3780517578125E-07
0.319671630859375	0.320037841796875	-9.4482421875E-07
0.317230224609375	0.317626953125	-9.5184326171875E-07
0.314788818359375	0.315155029296875	-9.5947265625E-07
0.312347412109375	0.31268310546875	-9.6435546875E-07
0.309906005859375	0.31024169921875	-9.7076416015625E-07
0.307464599609375	0.3077392578125	-9.747314453125E-07
0.305023193359375	0.305450439453125	-9.8175048828125E-07
0.302581787109375	0.302947998046875	-9.85107421875E-07
0.300140380859375	0.300445556640625	-9.930419921875E-07
0.297698974609375	0.29803466796875	-9.9761962890625E-07
0.295257568359375	0.295654296875	-1.0076904296875E-06
0.292816162109375	0.29315185546875	-1.01226806640625E-06
0.290374755859375	0.29058837890625	-1.0137939453125E-06
0.287933349609375	0.288238525390625	-1.02081298828125E-06
0.285491943359375	0.285858154296875	-1.02752685546875E-06
0.283050537109375	0.28338623046875	-1.033935546875E-06
0.280609130859375	0.281005859375	-1.038818359375E-06
0.278167724609375	0.2786865234375	-1.044921875E-06
0.275726318359375	0.27606201171875	-1.0516357421875E-06
0.273284912109375	0.273529052734375	-1.0552978515625E-06
0.270843505859375	0.271148681640625	-1.06292724609375E-06
0.268402099609375	0.26873779296875	-1.065673828125E-06
0.265960693359375	0.266204833984375	-1.07025146484375E-06
0.263519287109375	0.263824462890625	-1.07635498046875E-06
0.261077880859375	0.26141357421875	-1.080322265625E-06
0.258636474609375	0.2589111328125	-1.0882568359375E-06
0.256195068359375	0.25653076171875	-1.09588623046875E-06
0.253753662109375	0.253997802734375	-1.0992431640625E-06
0.251312255859375	0.25164794921875	-1.10260009765625E-06
0.248870849609375	0.24920654296875	-1.1083984375E-06
0.246429443359375	0.246734619140625	-1.1138916015625E-06
0.243988037109375	0.244293212890625	-1.11968994140625E-06
0.241546630859375	0.241912841796875	-1.1248779296875E-06
0.239105224609375	0.239349365234375	-1.131591796875E-06
0.236663818359375	0.236968994140625	-1.13494873046875E-06
0.234222412109375	0.234527587890625	-1.14227294921875E-06
0.231781005859375	0.232086181640625	-1.14349365234375E-06
0.229339599609375	0.229583740234375	-1.15142822265625E-06
0.226898193359375	0.2271728515625	-1.1566162109375E-06
0.224456787109375	0.224822998046875	-1.15631103515625E-06
0.222015380859375	0.2222900390625	-1.162109375E-06
0.219573974609375	0.219879150390625	-1.17095947265625E-06
0.217132568359375	0.21734619140625	-1.1749267578125E-06
0.214691162109375	0.214996337890625	-1.17706298828125E-06
0.212249755859375	0.212493896484375	-1.18408203125E-06
0.209808349609375	0.21014404296875	-1.18896484375E-06
0.207366943359375	0.20758056640625	-1.19232177734375E-06
0.204925537109375	0.2052001953125	-1.1962890625E-06
0.202484130859375	0.20263671875	-1.20086669921875E-06
0.200042724609375	0.200225830078125	-1.20269775390625E-06
0.197601318359375	0.197906494140625	-1.2109375E-06
0.195159912109375	0.19537353515625	-1.21490478515625E-06
0.192718505859375	0.192901611328125	-1.2164306640625E-06
0.190277099609375	0.190460205078125	-1.22283935546875E-06
0.187835693359375	0.18817138671875	-1.22772216796875E-06
0.185394287109375	0.18572998046875	-1.23077392578125E-06
0.182952880859375	0.183135986328125	-1.2353515625E-06
0.180511474609375	0.180816650390625	-1.24298095703125E-06
0.178070068359375	0.178314208984375	-1.24664306640625E-06
0.175628662109375	0.175872802734375	-1.24847412109375E-06
0.173187255859375	0.173431396484375	-1.2542724609375E-06
0.170745849609375	0.171051025390625	-1.25640869140625E-06
0.168304443359375	0.168548583984375	-1.26251220703125E-06
0.165863037109375	0.166229248046875	-1.26739501953125E-06
0.163421630859375	0.163726806640625	-1.2689208984375E-06
0.160980224609375	0.16119384765625	-1.273193359375E-06
0.158538818359375	0.1588134765625	-1.27838134765625E-06
0.156097412109375	0.156341552734375	-1.28326416015625E-06
0.153656005859375	0.15374755859375	-1.2860107421875E-06
0.151214599609375	0.15142822265625	-1.29058837890625E-06
0.148773193359375	0.14898681640625	-1.292724609375E-06
0.146331787109375	0.146575927734375	-1.29638671875E-06
0.143890380859375	0.1441650390625	-1.3018798828125E-06
0.141448974609375	0.14154052734375	-1.3067626953125E-06
0.139007568359375	0.13922119140625	-1.309814453125E-06
0.136566162109375	0.1368408203125	-1.3128662109375E-06
0.134124755859375	0.134307861328125	-1.31622314453125E-06
0.131683349609375	0.131927490234375	-1.317138671875E-06
0.129241943359375	0.1295166015625	-1.324462890625E-06
0.126800537109375	0.127044677734375	-1.32781982421875E-06
0.124359130859375	0.1246337890625	-1.33056640625E-06
0.121917724609375	0.12213134765625	-1.3330078125E-06
0.119476318359375	0.11962890625	-1.3385009765625E-06
0.117034912109375	0.117279052734375	-1.34521484375E-06
0.114593505859375	0.11474609375	-1.34552001953125E-06
0.112152099609375	0.11236572265625	-1.35162353515625E-06
0.109710693359375	0.109954833984375	-1.3531494140625E-06
0.107269287109375	0.10748291015625	-1.3543701171875E-06
0.104827880859375	0.105072021484375	-1.357421875E-06
0.102386474609375	0.102569580078125	-1.36444091796875E-06
0.099945068359375	0.100128173828125	-1.365966796875E-06
0.097503662109375	0.097625732421875	-1.36810302734375E-06
0.095062255859375	0.09527587890625	-1.37054443359375E-06
0.092620849609375	0.0927734375	-1.37481689453125E-06
0.090179443359375	0.090362548828125	-1.3763427734375E-06
0.087738037109375	0.087921142578125	-1.38092041015625E-06
0.090179443359375	0.09039306640625	-1.21307373046875E-06
0.092620849609375	0.092864990234375	-1.0858154296875E-06
0.095062255859375	0.09527587890625	-9.8388671875E-07
0.097503662109375	0.0977783203125	-8.94775390625E-07
0.099945068359375	0.1002197265625	-8.1207275390625E-07
0.102386474609375	0.1026611328125	-7.403564453125E-07
0.104827880859375	0.105224609375	-6.689453125E-07
0.107269287109375	0.10760498046875	-6.04248046875E-07
0.109710693359375	0.110076904296875	-5.4779052734375E-07
0.112152099609375	0.112457275390625	-4.864501953125E-07
0.114593505859375	0.1148681640625	-4.3182373046875E-07
0.117034912109375	0.117401123046875	-3.7841796875E-07
0.119476318359375	0.119842529296875	-3.28369140625E-07
0.121917724609375	0.122314453125	-2.8076171875E-07
0.124359130859375	0.124267578125	-2.47314453125E-07
0.126800537109375	0.12677001953125	-2.03643798828125E-07
0.129241943359375	0.129547119140625	-1.65679931640625E-07
0.131683349609375	0.13189697265625	-1.2811279296875E-07
0.134124755859375	0.13433837890625	-9.02099609375E-08
0.136566162109375	0.1368408203125	-5.6549072265625E-08
0.139007568359375	0.139495849609375	-2.1209716796875E-08
0.141448974609375	0.1417236328125	1.4373779296875E-08
0.143890380859375	0.14410400390625	4.94384765625E-08
0.146331787109375	0.14691162109375	8.0078125E-08
0.148773193359375	0.149261474609375	1.0845947265625E-07
0.151214599609375	0.1517333984375	1.34246826171875E-07
0.153656005859375	0.154571533203125	1.65618896484375E-07
0.156097412109375	0.156890869140625	1.92596435546875E-07
0.158538818359375	0.1593017578125	2.1954345703125E-07
0.160980224609375	0.16168212890625	2.4554443359375E-07
0.163421630859375	0.16436767578125	2.69927978515625E-07
0.165863037109375	0.1666259765625	2.96142578125E-07
0.168304443359375	0.16925048828125	3.1878662109375E-07
0.170745849609375	0.171905517578125	3.41796875E-07
0.173187255859375	0.174102783203125	3.656005859375E-07
0.175628662109375	0.176666259765625	3.89007568359375E-07
0.178070068359375	0.17913818359375	4.10858154296875E-07
0.180511474609375	0.181549072265625	4.3145751953125E-07
0.182952880859375	0.18426513671875	4.537353515625E-07
0.185394287109375	0.1865234375	4.7601318359375E-07
0.187835693359375	0.189178466796875	4.89837646484375E-07
0.190277099609375	0.19158935546875	5.1312255859375E-07
0.192718505859375	0.193878173828125	5.3179931640625E-07
0.195159912109375	0.196441650390625	5.52398681640625E-07
0.197601318359375	0.198883056640625	5.71044921875E-07
0.200042724609375	0.201507568359375	5.909423828125E-07
0.202484130859375	0.204010009765625	6.10076904296875E-07
0.204925537109375	0.205535888671875	6.317138671875E-07
0.207366943359375	0.207916259765625	6.50634765625E-07
0.209808349609375	0.21044921875	6.6680908203125E-07
0.212249755859375	0.2127685546875	6.82373046875E-07
0.214691162109375	0.215240478515625	7.025146484375E-07
0.217132568359375	0.21771240234375	7.1441650390625E-07
0.219573974609375	0.220123291015625	7.3516845703125E-07
0.222015380859375	0.22265625	7.55615234375E-07
0.224456787109375	0.225067138671875	7.7117919921875E-07
0.226898193359375	0.2275390625	7.855224609375E-07
0.229339599609375	0.2298583984375	8.038330078125E-07
0.231781005859375	0.232330322265625	8.2122802734375E-07
0.234222412109375	0.234832763671875	8.343505859375E-07
0.236663818359375	0.237213134765625	8.5479736328125E-07
0.239105224609375	0.239776611328125	8.6944580078125E-07
0.241546630859375	0.242218017578125	8.8714599609375E-07
0.243988037109375	0.244537353515625	9.0728759765625E-07
0.246429443359375	0.247100830078125	9.21630859375E-07
0.248870849609375	0.24951171875	9.36279296875E-07
0.251312255859375	0.251861572265625	9.55810546875E-07
0.253753662109375	0.25445556640625	9.70458984375E-07
0.256195068359375	0.25677490234375	9.869384765625E-07
0.258636474609375	0.25921630859375	1.00677490234375E-06
0.261077880859375	0.261627197265625	1.02386474609375E-06
0.263519287109375	0.264190673828125	1.038818359375E-06
0.265960693359375	0.2666015625	1.05499267578125E-06
0.268402099609375	0.269012451171875	1.07086181640625E-06
0.270843505859375	0.271514892578125	1.0894775390625E-06
0.273284912109375	0.27386474609375	1.10565185546875E-06
0.275726318359375	0.276336669921875	1.12457275390625E-06
0.278167724609375	0.27886962890625	1.1431884765625E-06
0.280609130859375	0.28125	1.158447265625E-06
0.283050537109375	0.28369140625	1.1767578125E-06
0.285491943359375	0.286224365234375	1.1932373046875E-06
0.287933349609375	0.288665771484375	1.2115478515625E-06
0.290374755859375	0.291046142578125	1.2298583984375E-06
0.292816162109375	0.29351806640625	1.248779296875E-06
0.295257568359375	0.295928955078125	1.263427734375E-06
0.297698974609375	0.298370361328125	1.2823486328125E-06
0.300140380859375	0.3009033203125	1.29974365234375E-06
0.302581787109375	0.303375244140625	1.31744384765625E-06
0.305023193359375	0.305755615234375	1.33270263671875E-06
0.307464599609375	0.308135986328125	1.353759765625E-06
0.309906005859375	0.310638427734375	1.3720703125E-06
0.312347412109375	0.313079833984375	1.39190673828125E-06
0.314788818359375	0.315460205078125	1.40838623046875E-06
0.317230224609375	0.318084716796875	1.42822265625E-06
0.319671630859375	0.32037353515625	1.44561767578125E-06
0.322113037109375	0.32281494140625	1.46453857421875E-06
0.324554443359375	0.32525634765625	1.4874267578125E-06
0.326995849609375	0.3277587890625	1.50482177734375E-06
0.329437255859375	0.330169677734375	1.524658203125E-06
0.331878662109375	0.3326416015625	1.5447998046875E-06
0.334320068359375	0.33502197265625	1.5606689453125E-06
0.336761474609375	0.3375244140625	1.57806396484375E-06
0.339202880859375	0.3399658203125	1.60491943359375E-06
0.341644287109375	0.34246826171875	1.62322998046875E-06
0.344085693359375	0.34490966796875	1.641845703125E-06
0.346527099609375	0.347320556640625	1.66229248046875E-06
0.348968505859375	0.3497314453125	1.6839599609375E-06
0.351409912109375	0.35223388671875	1.70379638671875E-06
0.353851318359375	0.354705810546875	1.7254638671875E-06
0.356292724609375	0.35711669921875	1.7437744140625E-06
0.358734130859375	0.359527587890625	1.76910400390625E-06
0.361175537109375	0.3619384765625	1.7926025390625E-06
0.363616943359375	0.364349365234375	1.81640625E-06
0.366058349609375	0.36688232421875	1.83502197265625E-06
0.368499755859375	0.369293212890625	1.8609619140625E-06
0.370941162109375	0.371826171875	1.8817138671875E-06
0.373382568359375	0.37420654296875	1.9085693359375E-06
0.375823974609375	0.376617431640625	1.92779541015625E-06
0.378265380859375	0.379119873046875	1.95587158203125E-06
0.380706787109375	0.381622314453125	1.97845458984375E-06
0.383148193359375	0.383941650390625	2.003173828125E-06
0.385589599609375	0.386474609375	2.02850341796875E-06
0.388031005859375	0.388824462890625	2.05413818359375E-06
0.390472412109375	0.3912353515625	2.08160400390625E-06
0.392913818359375	0.393768310546875	2.108154296875E-06
0.395355224609375	0.39617919921875	2.13775634765625E-06
0.397796630859375	0.398712158203125	2.1624755859375E-06
0.400238037109375	0.401123046875	2.19207763671875E-06
0.402679443359375	0.403594970703125	2.2198486328125E-06
0.405120849609375	0.405975341796875	2.25189208984375E-06
0.407562255859375	0.408416748046875	2.28057861328125E-06
0.410003662109375	0.4110107421875	2.3077392578125E-06
0.412445068359375	0.413360595703125	2.33917236328125E-06
0.414886474609375	0.415771484375	2.36907958984375E-06
0.417327880859375	0.418243408203125	2.40234375E-06
0.419769287109375	0.420745849609375	2.4371337890625E-06
0.422210693359375	0.423126220703125	2.4664306640625E-06
0.424652099609375	0.425567626953125	2.5006103515625E-06
0.427093505859375	0.428009033203125	2.53570556640625E-06
0.429534912109375	0.430450439453125	2.5738525390625E-06
0.431976318359375	0.432952880859375	2.606201171875E-06
0.434417724609375	0.43548583984375	2.64739990234375E-06
0.436859130859375	0.437774658203125	2.686767578125E-06
0.439300537109375	0.440216064453125	2.7252197265625E-06
0.441741943359375	0.44281005859375	2.76214599609375E-06
0.444183349609375	0.445281982421875	2.802734375E-06
0.446624755859375	0.4476318359375	2.84423828125E-06
0.449066162109375	0.4501953125	2.88299560546875E-06
0.451507568359375	0.4525146484375	2.9278564453125E-06
0.453948974609375	0.454986572265625	2.9742431640625E-06
0.456390380859375	0.457427978515625	3.0181884765625E-06
0.458831787109375	0.45989990234375	3.06610107421875E-06
0.461273193359375	0.46234130859375	3.10699462890625E-06
0.463714599609375	0.464752197265625	3.1573486328125E-06
0.466156005859375	0.46728515625	3.20556640625E-06
0.468597412109375	0.46966552734375	3.2568359375E-06
0.471038818359375	0.472137451171875	3.3056640625E-06
0.473480224609375	0.474639892578125	3.35906982421875E-06
0.475921630859375	0.47711181640625	3.4130859375E-06
0.478363037109375	0.479522705078125	3.46343994140625E-06
0.480804443359375	0.48199462890625	3.5205078125E-06
0.483245849609375	0.484405517578125	3.57818603515625E-06
0.485687255859375	0.486907958984375	3.63311767578125E-06
0.488128662109375	0.48931884765625	3.692626953125E-06
0.490570068359375	0.491790771484375	3.74664306640625E-06
0.493011474609375	0.494140625	3.81072998046875E-06
0.495452880859375	0.4967041015625	3.88092041015625E-06
0.497894287109375	0.499237060546875	3.94256591796875E-06
0.500335693359375	0.50152587890625	4.00970458984375E-06
0.502777099609375	0.503997802734375	4.07440185546875E-06
0.505218505859375	0.506439208984375	4.1497802734375E-06
0.507659912109375	0.50897216796875	4.22454833984375E-06
0.510101318359375	0.511383056640625	4.29779052734375E-06
0.512542724609375	0.51385498046875	4.3817138671875E-06
0.514984130859375	0.516265869140625	4.464111328125E-06
0.517425537109375	0.51873779296875	4.55047607421875E-06
0.519866943359375	0.521148681640625	4.64019775390625E-06
0.522308349609375	0.523681640625	4.73602294921875E-06
0.524749755859375	0.526123046875	4.8406982421875E-06
0.527191162109375	0.528533935546875	4.9444580078125E-06
0.529632568359375	0.531036376953125	5.052490234375E-06
0.532073974609375	0.533477783203125	5.17242431640625E-06
0.534515380859375	0.53594970703125	5.306396484375E-06
0.536956787109375	0.538482666015625	5.4412841796875E-06
0.539398193359375	0.540863037109375	5.5841064453125E-06
0.541839599609375	0.543365478515625	5.74676513671875E-06
0.544281005859375	0.5457763671875	5.91796875E-06
0.546722412109375	0.548309326171875	6.10443115234375E-06
0.549163818359375	0.5498046875	6.3079833984375E-06
0.551605224609375	0.552276611328125	6.5277099609375E-06
0.554046630859375	0.554779052734375	6.7596435546875E-06
0.556488037109375	0.55718994140625	7.012939453125E-06
0.558929443359375	0.559661865234375	7.2906494140625E-06
0.561370849609375	0.562103271484375	7.586669921875E-06
0.563812255859375	0.56451416015625	7.9071044921875E-06
0.566253662109375	0.5670166015625	8.26416015625E-06
0.568695068359375	0.5694580078125	8.6395263671875E-06
0.571136474609375	0.57183837890625	9.0545654296875E-06
0.573577880859375	0.5743408203125	9.515380859375E-06
0.576019287109375	0.5767822265625	1.00067138671875E-05
0.578460693359375	0.579254150390625	1.0528564453125E-05
0.580902099609375	0.581695556640625	1.1102294921875E-05
0.583343505859375	0.58416748046875	1.173095703125E-05
0.585784912109375	0.586578369140625	1.24114990234375E-05
0.588226318359375	0.589080810546875	1.31439208984375E-05
0.590667724609375	0.591552734375	1.395263671875E-05
0.593109130859375	0.594085693359375	1.48162841796875E-05
0.595550537109375	0.596466064453125	1.57470703125E-05
0.597991943359375	0.59893798828125	1.6748046875E-05
0.600433349609375	0.60137939453125	1.783447265625E-05
0.602874755859375	0.603790283203125	1.90185546875E-05
0.605316162109375	0.606292724609375	2.02911376953125E-05
0.607757568359375	0.60870361328125	2.164306640625E-05
0.610198974609375	0.611236572265625	2.31292724609375E-05
0.612640380859375	0.61370849609375	2.4774169921875E-05
0.615081787109375	0.61614990234375	2.6513671875E-05
0.617523193359375	0.618621826171875	2.83721923828125E-05
0.619964599609375	0.621124267578125	3.040771484375E-05
0.622406005859375	0.62359619140625	3.260498046875E-05
0.624847412109375	0.62603759765625	3.4991455078125E-05
0.627288818359375	0.628570556640625	3.75518798828125E-05
0.629730224609375	0.631011962890625	4.033203125E-05
0.632171630859375	0.63360595703125	4.3292236328125E-05
0.634613037109375	0.63604736328125	4.64752197265625E-05
0.637054443359375	0.638580322265625	4.9871826171875E-05
0.639495849609375	0.64111328125	5.3515625E-05
0.641937255859375	0.643524169921875	5.74005126953125E-05
0.644378662109375	0.64605712890625	6.1541748046875E-05
0.646820068359375	0.6475830078125	6.585693359375E-05
0.649261474609375	0.6500244140625	7.049560546875E-05
0.651702880859375	0.652496337890625	7.5531005859375E-05
0.654144287109375	0.654998779296875	8.074951171875E-05
0.656585693359375	0.657379150390625	8.6181640625E-05
0.659027099609375	0.659820556640625	9.2010498046875E-05
0.661468505859375	0.662261962890625	9.814453125E-05
0.663909912109375	0.66473388671875	0.0001046142578125
0.666351318359375	0.667144775390625	0.00011138916015625
0.668792724609375	0.669647216796875	0.000118560791015625
0.671234130859375	0.672149658203125	0.00012603759765625
0.673675537109375	0.674591064453125	0.000133880615234375
0.676116943359375	0.677001953125	0.00014208984375
0.678558349609375	0.679534912109375	0.000150665283203125
0.680999755859375	0.68194580078125	0.00015966796875
0.683441162109375	0.68438720703125	0.000169036865234375
0.685882568359375	0.686859130859375	0.0001787109375
0.688323974609375	0.689300537109375	0.000188934326171875
0.690765380859375	0.691741943359375	0.00019976806640625
0.693206787109375	0.694244384765625	0.000210906982421875
0.695648193359375	0.69671630859375	0.0002222900390625
0.698089599609375	0.69915771484375	0.000234344482421875
0.700531005859375	0.70159912109375	0.000246826171875
0.702972412109375	0.704071044921875	0.00025982666015625
0.705413818359375	0.70654296875	0.00027337646484375
0.707855224609375	0.70904541015625	0.000287506103515625
0.710296630859375	0.7115478515625	0.000302001953125
0.712738037109375	0.714019775390625	0.0003170166015625
0.715179443359375	0.716400146484375	0.00033251953125
0.717620849609375	0.7188720703125	0.00034857177734375
0.720062255859375	0.721405029296875	0.000365142822265625
0.722503662109375	0.723846435546875	0.000382232666015625
0.724945068359375	0.72625732421875	0.00039959716796875
0.727386474609375	0.72882080078125	0.000417694091796875
0.729827880859375	0.73126220703125	0.0004366455078125
0.732269287109375	0.733734130859375	0.000455841064453125
0.734710693359375	0.736236572265625	0.0004752197265625
0.737152099609375	0.738616943359375	0.000495361328125
0.739593505859375	0.7412109375	0.00051611328125
0.742034912109375	0.743621826171875	0.000537384033203125
0.744476318359375	0.746124267578125	0.00055926513671875
0.746917724609375	0.74737548828125	0.000581634521484375
0.749359130859375	0.75042724609375	0.000604339599609375
0.751800537109375	0.7525634765625	0.0006280517578125
0.754241943359375	0.75469970703125	0.00065155029296875
0.756683349609375	0.75775146484375	0.00067596435546875
0.759124755859375	0.76019287109375	0.00070037841796875
0.761566162109375	0.76263427734375	0.00072540283203125
0.764007568359375	0.76416015625	0.00075042724609375
0.766448974609375	0.7672119140625	0.0007763671875
0.768890380859375	0.76995849609375	0.00080291748046875
0.771331787109375	0.7720947265625	0.00082977294921875
0.773773193359375	0.7745361328125	0.0008563232421875
0.776214599609375	0.77667236328125	0.00088348388671875
0.778656005859375	0.77972412109375	0.0009112548828125
0.781097412109375	0.78155517578125	0.0009393310546875
0.783538818359375	0.78399658203125	0.000968017578125
0.785980224609375	0.78643798828125	0.00099700927734375
0.788421630859375	0.7891845703125	0.0010260009765625
0.790863037109375	0.7916259765625	0.0010552978515625
0.793304443359375	0.79376220703125	0.0010845947265625
0.795745849609375	0.79681396484375	0.00111419677734375
0.798187255859375	0.79864501953125	0.0011444091796875
0.800628662109375	0.80169677734375	0.0011749267578125
0.798187255859375	0.79864501953125	0.001134033203125
0.795745849609375	0.7965087890625	0.0010943603515625
0.793304443359375	0.794677734375	0.0010565185546875
0.790863037109375	0.792236328125	0.00101959228515625
0.788421630859375	0.78887939453125	0.00098388671875
0.785980224609375	0.7867431640625	0.0009490966796875
0.783538818359375	0.7843017578125	0.00091522216796875
0.781097412109375	0.7818603515625	0.00088287353515625
0.778656005859375	0.77911376953125	0.0008514404296875
0.776214599609375	0.7769775390625	0.0008209228515625
0.773773193359375	0.77423095703125	0.00079132080078125
0.771331787109375	0.77239990234375	0.00076324462890625
0.768890380859375	0.7696533203125	0.0007354736328125
0.766448974609375	0.76690673828125	0.00070831298828125
0.764007568359375	0.76446533203125	0.000682373046875
0.761566162109375	0.76263427734375	0.0006573486328125
0.759124755859375	0.760498046875	0.0006329345703125
0.756683349609375	0.75714111328125	0.00060943603515625
0.754241943359375	0.75531005859375	0.0005865478515625
0.751800537109375	0.75286865234375	0.00056427001953125
0.749359130859375	0.750091552734375	0.0005426025390625
0.746917724609375	0.747833251953125	0.0005218505859375
0.744476318359375	0.7452392578125	0.000501708984375
0.742034912109375	0.74285888671875	0.000481842041015625
0.739593505859375	0.74041748046875	0.000462921142578125
0.737152099609375	0.7379150390625	0.000444580078125
0.734710693359375	0.735504150390625	0.000426849365234375
0.732269287109375	0.73309326171875	0.00040997314453125
0.729827880859375	0.7313232421875	0.000393157958984375
0.727386474609375	0.728729248046875	0.00037689208984375
0.724945068359375	0.726165771484375	0.00036138916015625
0.722503662109375	0.723846435546875	0.000346588134765625
0.720062255859375	0.721343994140625	0.00033209228515625
0.717620849609375	0.718902587890625	0.000318115234375
0.715179443359375	0.716400146484375	0.0003045654296875
0.712738037109375	0.713897705078125	0.000291534423828125
0.710296630859375	0.711456298828125	0.000278900146484375
0.707855224609375	0.709014892578125	0.000266754150390625
0.705413818359375	0.70654296875	0.00025494384765625
0.702972412109375	0.70404052734375	0.00024359130859375
0.700531005859375	0.70159912109375	0.000232666015625
0.698089599609375	0.69915771484375	0.00022216796875
0.695648193359375	0.6966552734375	0.000212005615234375
0.693206787109375	0.6942138671875	0.000202392578125
0.690765380859375	0.69171142578125	0.000193023681640625
0.688323974609375	0.68927001953125	0.000183837890625
0.685882568359375	0.686859130859375	0.0001751708984375
0.683441162109375	0.684356689453125	0.00016693115234375
0.680999755859375	0.681976318359375	0.00015887451171875
0.678558349609375	0.679534912109375	0.000151123046875
0.676116943359375	0.677032470703125	0.000143707275390625
0.673675537109375	0.67462158203125	0.000136566162109375
0.671234130859375	0.672027587890625	0.00012969970703125
0.668792724609375	0.669677734375	0.00012310791015625
0.666351318359375	0.66717529296875	0.00011676025390625
0.663909912109375	0.664794921875	0.000110687255859375
0.661468505859375	0.662353515625	0.0001048583984375
0.659027099609375	0.659820556640625	9.9273681640625E-05
0.656585693359375	0.65740966796875	9.393310546875E-05
0.654144287109375	0.654998779296875	8.88671875E-05
0.651702880859375	0.65252685546875	8.3953857421875E-05
0.649261474609375	0.649993896484375	7.916259765625E-05
0.646820068359375	0.647613525390625	7.464599609375E-05
0.644378662109375	0.645172119140625	7.0404052734375E-05
0.641937255859375	0.64276123046875	6.62841796875E-05
0.639495849609375	0.640350341796875	6.2347412109375E-05
0.637054443359375	0.63787841796875	5.8563232421875E-05
0.634613037109375	0.6353759765625	5.4962158203125E-05
0.632171630859375	0.632965087890625	5.1544189453125E-05
0.629730224609375	0.630462646484375	4.82940673828125E-05
0.627288818359375	0.628082275390625	4.5166015625E-05
0.624847412109375	0.6256103515625	4.22027587890625E-05
0.622406005859375	0.62310791015625	3.9404296875E-05
0.619964599609375	0.620697021484375	3.67462158203125E-05
0.617523193359375	0.618804931640625	3.42620849609375E-05
0.615081787109375	0.61627197265625	3.1927490234375E-05
0.612640380859375	0.613800048828125	2.96722412109375E-05
0.610198974609375	0.611236572265625	2.75238037109375E-05
0.607757568359375	0.608795166015625	2.55218505859375E-05
0.605316162109375	0.60638427734375	2.366943359375E-05
0.602874755859375	0.6038818359375	2.18994140625E-05
0.600433349609375	0.60137939453125	2.02484130859375E-05
0.597991943359375	0.59893798828125	1.868896484375E-05
0.595550537109375	0.596466064453125	1.7242431640625E-05
0.593109130859375	0.593963623046875	1.58843994140625E-05
0.590667724609375	0.591522216796875	1.46148681640625E-05
0.588226318359375	0.5889892578125	1.34307861328125E-05
0.585784912109375	0.586639404296875	1.2335205078125E-05
0.583343505859375	0.584136962890625	1.13250732421875E-05
0.580902099609375	0.58160400390625	1.03912353515625E-05
0.578460693359375	0.579193115234375	9.527587890625E-06
0.576019287109375	0.576751708984375	8.740234375E-06
0.573577880859375	0.574249267578125	8.0047607421875E-06
0.571136474609375	0.57183837890625	7.318115234375E-06
0.568695068359375	0.56939697265625	6.689453125E-06
0.566253662109375	0.56695556640625	6.1279296875E-06
0.563812255859375	0.5645751953125	5.60302734375E-06
0.561370849609375	0.562103271484375	5.1116943359375E-06
0.558929443359375	0.55963134765625	4.6630859375E-06
0.556488037109375	0.55718994140625	4.254150390625E-06
0.554046630859375	0.554840087890625	3.8714599609375E-06
0.551605224609375	0.55230712890625	3.5150146484375E-06
0.549163818359375	0.549896240234375	3.1884765625E-06
0.546722412109375	0.54779052734375	2.89398193359375E-06
0.544281005859375	0.5452880859375	2.623291015625E-06
0.541839599609375	0.54266357421875	2.3748779296875E-06
0.539398193359375	0.540283203125	2.1435546875E-06
0.536956787109375	0.537872314453125	1.93695068359375E-06
0.534515380859375	0.535369873046875	1.7364501953125E-06
0.532073974609375	0.532958984375	1.54876708984375E-06
0.529632568359375	0.53033447265625	1.38580322265625E-06
0.527191162109375	0.5279541015625	1.236572265625E-06
0.524749755859375	0.5255126953125	1.09222412109375E-06
0.522308349609375	0.52301025390625	9.637451171875E-07
0.519866943359375	0.52069091796875	8.4228515625E-07
0.517425537109375	0.5181884765625	7.33642578125E-07
0.514984130859375	0.51568603515625	6.3018798828125E-07
0.512542724609375	0.51318359375	5.3680419921875E-07
0.510101318359375	0.5107421875	4.39453125E-07
0.507659912109375	0.508331298828125	3.594970703125E-07
0.505218505859375	0.505828857421875	2.752685546875E-07
0.502777099609375	0.50335693359375	2.0538330078125E-07
0.500335693359375	0.50091552734375	1.4617919921875E-07
0.497894287109375	0.498687744140625	9.1156005859375E-08
0.495452880859375	0.496002197265625	3.240966796875E-08
0.493011474609375	0.493499755859375	-2.57568359375E-08
0.490570068359375	0.490997314453125	-7.672119140625E-08
0.488128662109375	0.488555908203125	-1.19659423828125E-07
0.485687255859375	0.486114501953125	-1.64459228515625E-07
0.483245849609375	0.483489990234375	-2.01934814453125E-07
0.480804443359375	0.481170654296875	-2.43255615234375E-07
0.478363037109375	0.47894287109375	-2.75665283203125E-07
0.475921630859375	0.476104736328125	-3.1256103515625E-07
0.473480224609375	0.473663330078125	-3.45672607421875E-07
0.471038818359375	0.47119140625	-3.79058837890625E-07
0.468597412109375	0.468475341796875	-4.08935546875E-07
0.466156005859375	0.466339111328125	-4.3695068359375E-07
0.463714599609375	0.463287353515625	-4.613037109375E-07
0.461273193359375	0.461334228515625	-4.87640380859375E-07
0.458831787109375	0.458648681640625	-5.09765625E-07
0.456390380859375	0.45611572265625	-5.33355712890625E-07
0.453948974609375	0.453399658203125	-5.5560302734375E-07
0.451507568359375	0.450927734375	-5.79864501953125E-07
0.449066162109375	0.448883056640625	-5.9564208984375E-07
0.446624755859375	0.446258544921875	-6.1566162109375E-07
0.444183349609375	0.444610595703125	-6.378173828125E-07
0.441741943359375	0.442352294921875	-6.536865234375E-07
0.439300537109375	0.439727783203125	-6.7291259765625E-07
0.436859130859375	0.43743896484375	-6.903076171875E-07
0.434417724609375	0.4349365234375	-7.049560546875E-07
0.431976318359375	0.43243408203125	-7.2235107421875E-07
0.429534912109375	0.430023193359375	-7.391357421875E-07
0.427093505859375	0.4276123046875	-7.5286865234375E-07
0.424652099609375	0.42510986328125	-7.65380859375E-07
0.422210693359375	0.422607421875	-7.7972412109375E-07
0.419769287109375	0.420166015625	-7.8887939453125E-07
0.417327880859375	0.417816162109375	-8.0322265625E-07
0.414886474609375	0.415252685546875	-8.1451416015625E-07
0.412445068359375	0.41290283203125	-8.2855224609375E-07
0.410003662109375	0.4105224609375	-8.38623046875E-07
0.407562255859375	0.407989501953125	-8.477783203125E-07
0.405120849609375	0.40545654296875	-8.587646484375E-07
0.402679443359375	0.403076171875	-8.660888671875E-07
0.400238037109375	0.400604248046875	-8.795166015625E-07
0.397796630859375	0.398162841796875	-8.892822265625E-07
0.395355224609375	0.395721435546875	-8.9813232421875E-07
0.392913818359375	0.393310546875	-9.0789794921875E-07
0.390472412109375	0.390899658203125	-9.14306640625E-07
0.388031005859375	0.388458251953125	-9.2559814453125E-07
0.385589599609375	0.386016845703125	-9.326171875E-07
0.383148193359375	0.383575439453125	-9.3963623046875E-07
0.380706787109375	0.381134033203125	-9.4390869140625E-07
0.378265380859375	0.378692626953125	-9.527587890625E-07
0.375823974609375	0.376190185546875	-9.625244140625E-07
0.373382568359375	0.3736572265625	-9.68017578125E-07
0.370941162109375	0.371368408203125	-9.7442626953125E-07
0.368499755859375	0.368896484375	-9.8358154296875E-07
0.366058349609375	0.366485595703125	-9.9029541015625E-07
0.363616943359375	0.364044189453125	-9.94873046875E-07
0.361175537109375	0.361541748046875	-1.00311279296875E-06
0.358734130859375	0.359100341796875	-1.00738525390625E-06
0.356292724609375	0.356597900390625	-1.01318359375E-06
0.353851318359375	0.354156494140625	-1.02264404296875E-06
0.351409912109375	0.35174560546875	-1.02783203125E-06
0.348968505859375	0.349365234375	-1.03546142578125E-06
0.346527099609375	0.346893310546875	-1.0400390625E-06
0.344085693359375	0.344390869140625	-1.0455322265625E-06
0.341644287109375	0.34197998046875	-1.04736328125E-06
0.339202880859375	0.339630126953125	-1.0577392578125E-06
0.336761474609375	0.33709716796875	-1.06414794921875E-06
0.334320068359375	0.3345947265625	-1.06964111328125E-06
0.331878662109375	0.332275390625	-1.07757568359375E-06
0.329437255859375	0.329803466796875	-1.0809326171875E-06
0.326995849609375	0.327301025390625	-1.08734130859375E-06
0.324554443359375	0.3248291015625	-1.0931396484375E-06
0.322113037109375	0.32244873046875	-1.09710693359375E-06
0.319671630859375	0.32000732421875	-1.1041259765625E-06
0.317230224609375	0.317626953125	-1.1083984375E-06
0.314788818359375	0.315155029296875	-1.11541748046875E-06
0.312347412109375	0.31268310546875	-1.12152099609375E-06
0.309906005859375	0.310333251953125	-1.13006591796875E-06
0.307464599609375	0.307830810546875	-1.1309814453125E-06
0.305023193359375	0.30535888671875	-1.13494873046875E-06
0.302581787109375	0.3028564453125	-1.14105224609375E-06
0.300140380859375	0.300506591796875	-1.148681640625E-06
0.297698974609375	0.298004150390625	-1.15509033203125E-06
0.295257568359375	0.29559326171875	-1.1627197265625E-06
0.292816162109375	0.29315185546875	-1.163330078125E-06
0.290374755859375	0.290679931640625	-1.17034912109375E-06
0.287933349609375	0.28826904296875	-1.17584228515625E-06
0.285491943359375	0.285888671875	-1.18011474609375E-06
0.283050537109375	0.283416748046875	-1.18194580078125E-06
0.280609130859375	0.280853271484375	-1.19049072265625E-06
0.278167724609375	0.278533935546875	-1.19537353515625E-06
0.275726318359375	0.275970458984375	-1.20391845703125E-06
0.273284912109375	0.27362060546875	-1.209716796875E-06
0.270843505859375	0.271148681640625	-1.2139892578125E-06
0.268402099609375	0.268768310546875	-1.2188720703125E-06
0.265960693359375	0.266143798828125	-1.2225341796875E-06
0.263519287109375	0.26385498046875	-1.22467041015625E-06
0.261077880859375	0.2613525390625	-1.22955322265625E-06
0.258636474609375	0.25885009765625	-1.236572265625E-06
0.256195068359375	0.25640869140625	-1.2420654296875E-06
0.253753662109375	0.254058837890625	-1.2469482421875E-06
0.251312255859375	0.25164794921875	-1.25E-06
0.248870849609375	0.2491455078125	-1.25732421875E-06
0.246429443359375	0.246795654296875	-1.26190185546875E-06
0.243988037109375	0.2442626953125	-1.26617431640625E-06
0.241546630859375	0.241851806640625	-1.27166748046875E-06
0.239105224609375	0.239410400390625	-1.2750244140625E-06
0.236663818359375	0.23687744140625	-1.280517578125E-06
0.234222412109375	0.23443603515625	-1.2841796875E-06
0.231781005859375	0.2320556640625	-1.29058837890625E-06
0.229339599609375	0.229522705078125	-1.2933349609375E-06
0.226898193359375	0.227142333984375	-1.29791259765625E-06
0.224456787109375	0.224700927734375	-1.2994384765625E-06
0.222015380859375	0.22235107421875	-1.3067626953125E-06
0.219573974609375	0.2197265625	-1.30950927734375E-06
0.217132568359375	0.217315673828125	-1.3165283203125E-06
0.214691162109375	0.214874267578125	-1.318359375E-06
0.212249755859375	0.212646484375	-1.326904296875E-06
0.209808349609375	0.21002197265625	-1.32598876953125E-06
0.207366943359375	0.20770263671875	-1.3323974609375E-06
0.204925537109375	0.205169677734375	-1.336669921875E-06
0.202484130859375	0.202728271484375	-1.34307861328125E-06
0.200042724609375	0.20025634765625	-1.34521484375E-06
0.197601318359375	0.19775390625	-1.3482666015625E-06
0.195159912109375	0.19537353515625	-1.35223388671875E-06
0.192718505859375	0.193084716796875	-1.35498046875E-06
0.190277099609375	0.19049072265625	-1.36016845703125E-06
0.187835693359375	0.18798828125	-1.36444091796875E-06
0.185394287109375	0.1856689453125	-1.365966796875E-06
0.182952880859375	0.183197021484375	-1.36871337890625E-06
0.180511474609375	0.180694580078125	-1.37451171875E-06
0.178070068359375	0.178314208984375	-1.3775634765625E-06
0.175628662109375	0.1759033203125	-1.3812255859375E-06
0.173187255859375	0.173492431640625	-1.385498046875E-06
0.170745849609375	0.17108154296875	-1.39007568359375E-06
0.168304443359375	0.16851806640625	-1.392822265625E-06
0.165863037109375	0.166046142578125	-1.39739990234375E-06
0.163421630859375	0.16363525390625	-1.4013671875E-06
0.160980224609375	0.16119384765625	-1.40625E-06
0.158538818359375	0.158660888671875	-1.40655517578125E-06
0.156097412109375	0.15631103515625	-1.41143798828125E-06
0.153656005859375	0.15380859375	-1.4166259765625E-06
0.151214599609375	0.15142822265625	-1.4190673828125E-06
0.148773193359375	0.148895263671875	-1.42333984375E-06
0.146331787109375	0.146514892578125	-1.42425537109375E-06
0.143890380859375	0.144134521484375	-1.43096923828125E-06
0.141448974609375	0.14166259765625	-1.4337158203125E-06
0.139007568359375	0.139190673828125	-1.436767578125E-06
0.136566162109375	0.136810302734375	-1.43798828125E-06
0.134124755859375	0.13427734375	-1.441650390625E-06
0.131683349609375	0.131927490234375	-1.44683837890625E-06
0.129241943359375	0.12939453125	-1.44775390625E-06
0.126800537109375	0.126953125	-1.4532470703125E-06
0.124359130859375	0.12457275390625	-1.45782470703125E-06
0.121917724609375	0.122100830078125	-1.463623046875E-06
0.119476318359375	0.11962890625	-1.46575927734375E-06
0.117034912109375	0.117218017578125	-1.47064208984375E-06
0.114593505859375	0.11480712890625	-1.47125244140625E-06
0.112152099609375	0.112274169921875	-1.4715576171875E-06
0.109710693359375	0.109832763671875	-1.47857666015625E-06
0.107269287109375	0.1075439453125	-1.4813232421875E-06
0.104827880859375	0.10504150390625	-1.48468017578125E-06
0.102386474609375	0.102447509765625	-1.4874267578125E-06
0.099945068359375	0.100067138671875	-1.4935302734375E-06
0.097503662109375	0.097747802734375	-1.49658203125E-06
0.095062255859375	0.09521484375	-1.49688720703125E-06
0.092620849609375	0.09271240234375	-1.50421142578125E-06
0.090179443359375	0.09033203125	-1.50482177734375E-06
0.087738037109375	0.087860107421875	-1.510009765625E-06
0.090179443359375	0.090362548828125	-1.341552734375E-06
0.092620849609375	0.0927734375	-1.21429443359375E-06
0.095062255859375	0.095306396484375	-1.10626220703125E-06
0.097503662109375	0.097747802734375	-1.01593017578125E-06
0.099945068359375	0.10009765625	-9.3536376953125E-07
0.102386474609375	0.102630615234375	-8.59375E-07
0.104827880859375	0.105133056640625	-7.87353515625E-07
0.107269287109375	0.1075439453125	-7.269287109375E-07
0.109710693359375	0.109954833984375	-6.6375732421875E-07
0.112152099609375	0.11248779296875	-6.072998046875E-07
0.114593505859375	0.1148681640625	-5.5511474609375E-07
0.117034912109375	0.1173095703125	-4.998779296875E-07
0.119476318359375	0.119781494140625	-4.4769287109375E-07
0.121917724609375	0.122344970703125	-4.01611328125E-07
0.124359130859375	0.12469482421875	-3.485107421875E-07
0.126800537109375	0.127227783203125	-3.0517578125E-07
0.129241943359375	0.12921142578125	-2.7154541015625E-07
0.131683349609375	0.131500244140625	-2.3199462890625E-07
0.134124755859375	0.1341552734375	-1.93023681640625E-07
0.136566162109375	0.136688232421875	-1.55670166015625E-07
0.139007568359375	0.139129638671875	-1.221923828125E-07
0.141448974609375	0.141754150390625	-8.8958740234375E-08
0.143890380859375	0.144134521484375	-5.194091796875E-08
0.146331787109375	0.146636962890625	-1.849365234375E-08
0.148773193359375	0.149169921875	1.3031005859375E-08
0.151214599609375	0.151580810546875	4.2755126953125E-08
0.153656005859375	0.154296875	7.3760986328125E-08
0.156097412109375	0.15655517578125	1.03271484375E-07
0.158538818359375	0.1590576171875	1.312255859375E-07
0.160980224609375	0.161651611328125	1.60125732421875E-07
0.163421630859375	0.163970947265625	1.875E-07
0.165863037109375	0.16680908203125	2.115478515625E-07
0.168304443359375	0.169158935546875	2.3394775390625E-07
0.170745849609375	0.171600341796875	2.60711669921875E-07
0.173187255859375	0.17413330078125	2.86468505859375E-07
0.175628662109375	0.17645263671875	3.09539794921875E-07
0.178070068359375	0.17913818359375	3.30413818359375E-07
0.180511474609375	0.18145751953125	3.53668212890625E-07
0.182952880859375	0.183868408203125	3.80462646484375E-07
0.185394287109375	0.186431884765625	4.0045166015625E-07
0.187835693359375	0.188751220703125	4.20196533203125E-07
0.190277099609375	0.19146728515625	4.41802978515625E-07
0.192718505859375	0.1939697265625	4.63714599609375E-07
0.195159912109375	0.1962890625	4.85565185546875E-07
0.197601318359375	0.198760986328125	5.03814697265625E-07
0.200042724609375	0.201263427734375	5.23284912109375E-07
0.202484130859375	0.2039794921875	5.4498291015625E-07
0.204925537109375	0.206268310546875	5.6427001953125E-07
0.207366943359375	0.20867919921875	5.83038330078125E-07
0.209808349609375	0.21112060546875	6.0211181640625E-07
0.212249755859375	0.212860107421875	6.2347412109375E-07
0.214691162109375	0.21527099609375	6.4056396484375E-07
0.217132568359375	0.21771240234375	6.5826416015625E-07
0.219573974609375	0.22015380859375	6.7474365234375E-07
0.222015380859375	0.22259521484375	6.94580078125E-07
0.224456787109375	0.224945068359375	7.1319580078125E-07
0.226898193359375	0.227508544921875	7.275390625E-07
0.229339599609375	0.22998046875	7.440185546875E-07
0.231781005859375	0.2322998046875	7.6507568359375E-07
0.234222412109375	0.23480224609375	7.7880859375E-07
0.236663818359375	0.237213134765625	7.9925537109375E-07
0.239105224609375	0.23974609375	8.160400390625E-07
0.241546630859375	0.242156982421875	8.319091796875E-07
0.243988037109375	0.244598388671875	8.5205078125E-07
0.246429443359375	0.2470703125	8.660888671875E-07
0.248870849609375	0.24951171875	8.843994140625E-07
0.251312255859375	0.251922607421875	9.0118408203125E-07
0.253753662109375	0.254364013671875	9.1705322265625E-07
0.256195068359375	0.256805419921875	9.3475341796875E-07
0.258636474609375	0.259307861328125	9.503173828125E-07
0.261077880859375	0.261688232421875	9.6771240234375E-07
0.263519287109375	0.264312744140625	9.8236083984375E-07
0.265960693359375	0.26654052734375	1.00067138671875E-06
0.268402099609375	0.269012451171875	1.01959228515625E-06
0.270843505859375	0.27142333984375	1.03363037109375E-06
0.273284912109375	0.273834228515625	1.05255126953125E-06
0.275726318359375	0.276397705078125	1.07177734375E-06
0.278167724609375	0.278778076171875	1.087646484375E-06
0.280609130859375	0.281280517578125	1.10443115234375E-06
0.283050537109375	0.28375244140625	1.12213134765625E-06
0.285491943359375	0.286163330078125	1.13800048828125E-06
0.287933349609375	0.2886962890625	1.15570068359375E-06
0.290374755859375	0.29107666015625	1.173095703125E-06
0.292816162109375	0.29351806640625	1.18927001953125E-06
0.295257568359375	0.2958984375	1.2078857421875E-06
0.297698974609375	0.298370361328125	1.224365234375E-06
0.300140380859375	0.300811767578125	1.2451171875E-06
0.302581787109375	0.30328369140625	1.26068115234375E-06
0.305023193359375	0.30572509765625	1.27716064453125E-06
0.307464599609375	0.30816650390625	1.297607421875E-06
0.309906005859375	0.310638427734375	1.31378173828125E-06
0.312347412109375	0.313079833984375	1.33270263671875E-06
0.314788818359375	0.315582275390625	1.3494873046875E-06
0.317230224609375	0.317901611328125	1.3677978515625E-06
0.319671630859375	0.320343017578125	1.38641357421875E-06
0.322113037109375	0.32275390625	1.40472412109375E-06
0.324554443359375	0.325286865234375	1.424560546875E-06
0.326995849609375	0.3277587890625	1.44317626953125E-06
0.329437255859375	0.3302001953125	1.46148681640625E-06
0.331878662109375	0.3326416015625	1.48162841796875E-06
0.334320068359375	0.335052490234375	1.49383544921875E-06
0.336761474609375	0.33746337890625	1.51519775390625E-06
0.339202880859375	0.33990478515625	1.5386962890625E-06
0.341644287109375	0.342376708984375	1.5576171875E-06
0.344085693359375	0.344879150390625	1.57318115234375E-06
0.346527099609375	0.3472900390625	1.5924072265625E-06
0.348968505859375	0.34967041015625	1.6119384765625E-06
0.351409912109375	0.352264404296875	1.630859375E-06
0.353851318359375	0.35455322265625	1.6552734375E-06
0.356292724609375	0.3570556640625	1.67388916015625E-06
0.358734130859375	0.359527587890625	1.69525146484375E-06
0.361175537109375	0.36199951171875	1.7138671875E-06
0.363616943359375	0.364501953125	1.734619140625E-06
0.366058349609375	0.366912841796875	1.759033203125E-06
0.368499755859375	0.369384765625	1.77642822265625E-06
0.370941162109375	0.3717041015625	1.80419921875E-06
0.373382568359375	0.374053955078125	1.82220458984375E-06
0.375823974609375	0.3765869140625	1.84478759765625E-06
0.378265380859375	0.379180908203125	1.8731689453125E-06
0.380706787109375	0.381561279296875	1.89239501953125E-06
0.383148193359375	0.3839111328125	1.9140625E-06
0.385589599609375	0.386383056640625	1.93572998046875E-06
0.388031005859375	0.388946533203125	1.9573974609375E-06
0.390472412109375	0.391265869140625	1.986083984375E-06
0.392913818359375	0.393768310546875	2.0062255859375E-06
0.395355224609375	0.39630126953125	2.0330810546875E-06
0.397796630859375	0.398712158203125	2.05657958984375E-06
0.400238037109375	0.40118408203125	2.0819091796875E-06
0.402679443359375	0.40350341796875	2.11395263671875E-06
0.405120849609375	0.405975341796875	2.13775634765625E-06
0.407562255859375	0.408477783203125	2.16339111328125E-06
0.410003662109375	0.41094970703125	2.19268798828125E-06
0.412445068359375	0.413299560546875	2.2149658203125E-06
0.414886474609375	0.415863037109375	2.24578857421875E-06
0.417327880859375	0.4183349609375	2.27386474609375E-06
0.419769287109375	0.420745849609375	2.30621337890625E-06
0.422210693359375	0.423126220703125	2.33489990234375E-06
0.424652099609375	0.42559814453125	2.3638916015625E-06
0.427093505859375	0.42803955078125	2.39349365234375E-06
0.429534912109375	0.430572509765625	2.42889404296875E-06
0.431976318359375	0.43292236328125	2.45941162109375E-06
0.434417724609375	0.43524169921875	2.496337890625E-06
0.436859130859375	0.43792724609375	2.52838134765625E-06
0.439300537109375	0.4403076171875	2.56195068359375E-06
0.441741943359375	0.44268798828125	2.596435546875E-06
0.444183349609375	0.4451904296875	2.63580322265625E-06
0.446624755859375	0.447662353515625	2.67242431640625E-06
0.449066162109375	0.450103759765625	2.70721435546875E-06
0.451507568359375	0.452545166015625	2.744140625E-06
0.453948974609375	0.454925537109375	2.78656005859375E-06
0.456390380859375	0.45745849609375	2.825927734375E-06
0.458831787109375	0.459869384765625	2.86712646484375E-06
0.461273193359375	0.462371826171875	2.90618896484375E-06
0.463714599609375	0.46478271484375	2.947998046875E-06
0.466156005859375	0.467193603515625	2.99224853515625E-06
0.468597412109375	0.469696044921875	3.03619384765625E-06
0.471038818359375	0.47210693359375	3.08258056640625E-06
0.473480224609375	0.47454833984375	3.13018798828125E-06
0.475921630859375	0.47711181640625	3.17657470703125E-06
0.478363037109375	0.479522705078125	3.22540283203125E-06
0.480804443359375	0.481903076171875	3.27362060546875E-06
0.483245849609375	0.484375	3.32305908203125E-06
0.485687255859375	0.48681640625	3.37615966796875E-06
0.488128662109375	0.48931884765625	3.42681884765625E-06
0.490570068359375	0.491668701171875	3.4765625E-06
0.493011474609375	0.49420166015625	3.533935546875E-06
0.495452880859375	0.49676513671875	3.59039306640625E-06
0.497894287109375	0.499114990234375	3.64990234375E-06
0.500335693359375	0.50152587890625	3.70361328125E-06
0.502777099609375	0.503936767578125	3.76678466796875E-06
0.505218505859375	0.50640869140625	3.834228515625E-06
0.507659912109375	0.50885009765625	3.8970947265625E-06
0.510101318359375	0.51129150390625	3.95904541015625E-06
0.512542724609375	0.513763427734375	4.033203125E-06
0.514984130859375	0.51629638671875	4.102783203125E-06
0.517425537109375	0.51861572265625	4.17694091796875E-06
0.519866943359375	0.521087646484375	4.25445556640625E-06
0.522308349609375	0.523590087890625	4.33349609375E-06
0.524749755859375	0.526031494140625	4.41650390625E-06
0.527191162109375	0.528411865234375	4.50469970703125E-06
0.529632568359375	0.53094482421875	4.59686279296875E-06
0.532073974609375	0.533355712890625	4.68994140625E-06
0.534515380859375	0.535888671875	4.80865478515625E-06
0.536956787109375	0.538330078125	4.91729736328125E-06
0.539398193359375	0.540771484375	5.0323486328125E-06
0.541839599609375	0.54315185546875	5.1641845703125E-06
0.544281005859375	0.545745849609375	5.299072265625E-06
0.546722412109375	0.548187255859375	5.450439453125E-06
0.549163818359375	0.55072021484375	5.60821533203125E-06
0.551605224609375	0.553192138671875	5.79010009765625E-06
0.554046630859375	0.55560302734375	5.96588134765625E-06
0.556488037109375	0.55810546875	6.1669921875E-06
0.558929443359375	0.559661865234375	6.390380859375E-06
0.561370849609375	0.562103271484375	6.6131591796875E-06
0.563812255859375	0.56451416015625	6.8695068359375E-06
0.566253662109375	0.56695556640625	7.14111328125E-06
0.568695068359375	0.5693359375	7.427978515625E-06
0.571136474609375	0.571929931640625	7.745361328125E-06
0.573577880859375	0.574371337890625	8.1024169921875E-06
0.576019287109375	0.5767822265625	8.4686279296875E-06
0.578460693359375	0.579132080078125	8.868408203125E-06
0.580902099609375	0.581634521484375	9.3017578125E-06
0.583343505859375	0.5841064453125	9.77783203125E-06
0.585784912109375	0.586517333984375	1.0284423828125E-05
0.588226318359375	0.589019775390625	1.083984375E-05
0.590667724609375	0.59149169921875	1.14349365234375E-05
0.593109130859375	0.59393310546875	1.207275390625E-05
0.595550537109375	0.596466064453125	1.275634765625E-05
0.597991943359375	0.598846435546875	1.34979248046875E-05
0.600433349609375	0.60125732421875	1.4288330078125E-05
0.602874755859375	0.603851318359375	1.5142822265625E-05
0.605316162109375	0.606292724609375	1.6058349609375E-05
0.607757568359375	0.608673095703125	1.70318603515625E-05
0.610198974609375	0.611114501953125	1.8084716796875E-05
0.612640380859375	0.6136474609375	1.92413330078125E-05
0.615081787109375	0.616119384765625	2.047119140625E-05
0.617523193359375	0.6185302734375	2.17529296875E-05
0.619964599609375	0.621002197265625	2.31689453125E-05
0.622406005859375	0.623504638671875	2.46795654296875E-05
0.624847412109375	0.625946044921875	2.6287841796875E-05
0.627288818359375	0.628326416015625	2.8033447265625E-05
0.629730224609375	0.630859375	2.99102783203125E-05
0.632171630859375	0.63336181640625	3.18939208984375E-05
0.634613037109375	0.6358642578125	3.40179443359375E-05
0.637054443359375	0.63836669921875	3.6285400390625E-05
0.639495849609375	0.640777587890625	3.86962890625E-05
0.641937255859375	0.643310546875	4.1265869140625E-05
0.644378662109375	0.645782470703125	4.39910888671875E-05
0.646820068359375	0.648223876953125	4.6832275390625E-05
0.649261474609375	0.6507568359375	4.9884033203125E-05
0.651702880859375	0.653289794921875	5.31707763671875E-05
0.654144287109375	0.655731201171875	5.6597900390625E-05
0.656585693359375	0.65814208984375	6.0137939453125E-05
0.659027099609375	0.6597900390625	6.3934326171875E-05
0.661468505859375	0.6622314453125	6.793212890625E-05
0.663909912109375	0.66461181640625	7.21435546875E-05
0.666351318359375	0.6671142578125	7.65380859375E-05
0.668792724609375	0.6695556640625	8.1207275390625E-05
0.671234130859375	0.67205810546875	8.60595703125E-05
0.673675537109375	0.674530029296875	9.1156005859375E-05
0.676116943359375	0.676971435546875	9.6466064453125E-05
0.678558349609375	0.679412841796875	0.00010205078125
0.680999755859375	0.681854248046875	0.00010784912109375
0.683441162109375	0.684326171875	0.000113922119140625
0.685882568359375	0.686767578125	0.000120147705078125
0.688323974609375	0.68914794921875	0.00012677001953125
0.690765380859375	0.691680908203125	0.000133758544921875
0.693206787109375	0.694122314453125	0.000140899658203125
0.695648193359375	0.69659423828125	0.00014825439453125
0.698089599609375	0.699066162109375	0.000156005859375
0.700531005859375	0.70147705078125	0.000164031982421875
0.702972412109375	0.703948974609375	0.00017236328125
0.705413818359375	0.7064208984375	0.00018109130859375
0.707855224609375	0.7088623046875	0.000190093994140625
0.710296630859375	0.71136474609375	0.00019940185546875
0.712738037109375	0.7137451171875	0.000209014892578125
0.715179443359375	0.716217041015625	0.00021893310546875
0.717620849609375	0.718719482421875	0.000229217529296875
0.720062255859375	0.721160888671875	0.00023980712890625
0.722503662109375	0.72369384765625	0.000250762939453125
0.724945068359375	0.72607421875	0.000261810302734375
0.727386474609375	0.728485107421875	0.00027337646484375
0.729827880859375	0.730987548828125	0.0002855224609375
0.732269287109375	0.733551025390625	0.000297760009765625
0.734710693359375	0.735931396484375	0.0003101806640625
0.737152099609375	0.7384033203125	0.0003231201171875
0.739593505859375	0.740875244140625	0.00033636474609375
0.742034912109375	0.743316650390625	0.0003499755859375
0.744476318359375	0.74578857421875	0.000364044189453125
0.746917724609375	0.748260498046875	0.000378387451171875
0.749359130859375	0.7501220703125	0.0003929443359375
0.751800537109375	0.7525634765625	0.000407867431640625
0.754241943359375	0.7550048828125	0.000423095703125
0.756683349609375	0.7574462890625	0.0004385986328125
0.759124755859375	0.75927734375	0.0004544677734375
0.761566162109375	0.7623291015625	0.000470611572265625
0.764007568359375	0.76446533203125	0.00048675537109375
0.766448974609375	0.76751708984375	0.00050341796875
0.768890380859375	0.7696533203125	0.000520782470703125
0.771331787109375	0.772705078125	0.0005380859375
0.773773193359375	0.7745361328125	0.0005552978515625
0.776214599609375	0.777587890625	0.00057305908203125
0.778656005859375	0.7794189453125	0.000591156005859375
0.781097412109375	0.78216552734375	0.000609375
0.783538818359375	0.784912109375	0.00062835693359375
0.785980224609375	0.7867431640625	0.0006475830078125
0.788421630859375	0.78857421875	0.00066650390625
0.790863037109375	0.79193115234375	0.00068572998046875
0.793304443359375	0.79437255859375	0.0007049560546875
0.795745849609375	0.79681396484375	0.0007244873046875
0.798187255859375	0.7989501953125	0.00074432373046875
0.800628662109375	0.80169677734375	0.00076416015625
0.798187255859375	0.7989501953125	0.00073638916015625
0.795745849609375	0.79620361328125	0.0007098388671875
0.793304443359375	0.79437255859375	0.0006842041015625
0.790863037109375	0.7916259765625	0.00065948486328125
0.788421630859375	0.78948974609375	0.00063568115234375
0.785980224609375	0.7861328125	0.00061279296875
0.783538818359375	0.78460693359375	0.00059051513671875
0.781097412109375	0.78155517578125	0.00056915283203125
0.778656005859375	0.7794189453125	0.0005487060546875
0.776214599609375	0.77667236328125	0.000528564453125
0.773773193359375	0.7745361328125	0.00050933837890625
0.771331787109375	0.77239990234375	0.000490936279296875
0.768890380859375	0.7696533203125	0.000472869873046875
0.766448974609375	0.7672119140625	0.00045513916015625
0.764007568359375	0.76507568359375	0.000438507080078125
0.761566162109375	0.7623291015625	0.000422454833984375
0.759124755859375	0.75958251953125	0.000406402587890625
0.756683349609375	0.75714111328125	0.00039111328125
0.754241943359375	0.7550048828125	0.000376312255859375
0.751800537109375	0.75286865234375	0.00036199951171875
0.749359130859375	0.7501220703125	0.00034808349609375
0.746917724609375	0.748321533203125	0.00033465576171875
0.744476318359375	0.74578857421875	0.00032159423828125
0.742034912109375	0.743255615234375	0.000309051513671875
0.739593505859375	0.740814208984375	0.000296875
0.737152099609375	0.738311767578125	0.00028515625
0.734710693359375	0.73590087890625	0.0002738037109375
0.732269287109375	0.7335205078125	0.000262969970703125
0.729827880859375	0.730987548828125	0.00025238037109375
0.727386474609375	0.72845458984375	0.00024200439453125
0.724945068359375	0.725982666015625	0.000232086181640625
0.722503662109375	0.7236328125	0.00022265625
0.720062255859375	0.721221923828125	0.000213409423828125
0.717620849609375	0.7186279296875	0.0002044677734375
0.715179443359375	0.71624755859375	0.00019586181640625
0.712738037109375	0.713714599609375	0.000187530517578125
0.710296630859375	0.711334228515625	0.000179534912109375
0.707855224609375	0.708831787109375	0.000171783447265625
0.705413818359375	0.706390380859375	0.00016424560546875
0.702972412109375	0.70391845703125	0.000157012939453125
0.700531005859375	0.701385498046875	0.00015008544921875
0.698089599609375	0.6990966796875	0.000143402099609375
0.695648193359375	0.69659423828125	0.000136932373046875
0.693206787109375	0.694122314453125	0.000130828857421875
0.690765380859375	0.691650390625	0.000124847412109375
0.688323974609375	0.689239501953125	0.000118988037109375
0.685882568359375	0.686737060546875	0.000113494873046875
0.683441162109375	0.684326171875	0.000108245849609375
0.680999755859375	0.681884765625	0.0001031494140625
0.678558349609375	0.67938232421875	9.820556640625E-05
0.676116943359375	0.676971435546875	9.3475341796875E-05
0.673675537109375	0.67449951171875	8.892822265625E-05
0.671234130859375	0.672088623046875	8.4564208984375E-05
0.668792724609375	0.669647216796875	8.038330078125E-05
0.666351318359375	0.667144775390625	7.6324462890625E-05
0.663909912109375	0.66473388671875	7.2479248046875E-05
0.661468505859375	0.66229248046875	6.8756103515625E-05
0.659027099609375	0.6597900390625	6.5216064453125E-05
0.656585693359375	0.6573486328125	6.1798095703125E-05
0.654144287109375	0.65496826171875	5.859375E-05
0.651702880859375	0.6524658203125	5.5450439453125E-05
0.649261474609375	0.649993896484375	5.2398681640625E-05
0.646820068359375	0.647552490234375	4.9530029296875E-05
0.644378662109375	0.645233154296875	4.6795654296875E-05
0.641937255859375	0.642669677734375	4.41619873046875E-05
0.639495849609375	0.640228271484375	4.1650390625E-05
0.637054443359375	0.637786865234375	3.92364501953125E-05
0.634613037109375	0.636016845703125	3.69659423828125E-05
0.632171630859375	0.633453369140625	3.47747802734375E-05
0.629730224609375	0.631011962890625	3.267822265625E-05
0.627288818359375	0.62841796875	3.0670166015625E-05
0.624847412109375	0.62591552734375	2.87689208984375E-05
0.622406005859375	0.623504638671875	2.69683837890625E-05
0.619964599609375	0.621063232421875	2.52471923828125E-05
0.617523193359375	0.618560791015625	2.362060546875E-05
0.615081787109375	0.616180419921875	2.20947265625E-05
0.612640380859375	0.61358642578125	2.06268310546875E-05
0.610198974609375	0.61114501953125	1.92138671875E-05
0.607757568359375	0.608673095703125	1.7901611328125E-05
0.605316162109375	0.60626220703125	1.6680908203125E-05
0.602874755859375	0.603668212890625	1.54998779296875E-05
0.600433349609375	0.601287841796875	1.43890380859375E-05
0.597991943359375	0.598846435546875	1.3348388671875E-05
0.595550537109375	0.596405029296875	1.23687744140625E-05
0.593109130859375	0.594024658203125	1.14410400390625E-05
0.590667724609375	0.591461181640625	1.058349609375E-05
0.588226318359375	0.589019775390625	9.7625732421875E-06
0.585784912109375	0.5865478515625	9.0087890625E-06
0.583343505859375	0.584136962890625	8.2977294921875E-06
0.580902099609375	0.581634521484375	7.6446533203125E-06
0.578460693359375	0.5792236328125	7.03125E-06
0.576019287109375	0.576751708984375	6.4727783203125E-06
0.573577880859375	0.57421875	5.94482421875E-06
0.571136474609375	0.571807861328125	5.450439453125E-06
0.568695068359375	0.569305419921875	4.9957275390625E-06
0.566253662109375	0.56695556640625	4.5806884765625E-06
0.563812255859375	0.5645751953125	4.19158935546875E-06
0.561370849609375	0.562042236328125	3.828125E-06
0.558929443359375	0.559600830078125	3.49761962890625E-06
0.556488037109375	0.557647705078125	3.18450927734375E-06
0.554046630859375	0.55517578125	2.89703369140625E-06
0.551605224609375	0.55255126953125	2.63702392578125E-06
0.549163818359375	0.550140380859375	2.386474609375E-06
0.546722412109375	0.5477294921875	2.15972900390625E-06
0.544281005859375	0.545196533203125	1.9537353515625E-06
0.541839599609375	0.542816162109375	1.761474609375E-06
0.539398193359375	0.5401611328125	1.58172607421875E-06
0.536956787109375	0.53778076171875	1.42486572265625E-06
0.534515380859375	0.535247802734375	1.26922607421875E-06
0.532073974609375	0.532806396484375	1.1224365234375E-06
0.529632568359375	0.530364990234375	9.8541259765625E-07
0.527191162109375	0.527984619140625	8.746337890625E-07
0.524749755859375	0.52545166015625	7.6416015625E-07
0.522308349609375	0.52294921875	6.5765380859375E-07
0.519866943359375	0.52056884765625	5.572509765625E-07
0.517425537109375	0.51806640625	4.6875E-07
0.514984130859375	0.51556396484375	3.7872314453125E-07
0.512542724609375	0.51318359375	2.984619140625E-07
0.510101318359375	0.51068115234375	2.18505859375E-07
0.507659912109375	0.508209228515625	1.5869140625E-07
0.505218505859375	0.506103515625	9.832763671875E-08
0.502777099609375	0.503387451171875	4.1412353515625E-08
0.500335693359375	0.501129150390625	-1.873779296875E-08
0.497894287109375	0.49847412109375	-6.915283203125E-08
0.495452880859375	0.495941162109375	-1.17034912109375E-07
0.493011474609375	0.4935302734375	-1.68670654296875E-07
0.490570068359375	0.490875244140625	-2.09564208984375E-07
0.488128662109375	0.488128662109375	-2.48443603515625E-07
0.485687255859375	0.486053466796875	-2.88848876953125E-07
0.483245849609375	0.48345947265625	-3.255615234375E-07
0.480804443359375	0.480926513671875	-3.59375E-07
0.478363037109375	0.47833251953125	-3.922119140625E-07
0.475921630859375	0.475830078125	-4.20745849609375E-07
0.473480224609375	0.47332763671875	-4.5306396484375E-07
0.471038818359375	0.4708251953125	-4.8272705078125E-07
0.468597412109375	0.468231201171875	-5.09796142578125E-07
0.466156005859375	0.46600341796875	-5.3662109375E-07
0.463714599609375	0.4635009765625	-5.59112548828125E-07
0.461273193359375	0.461212158203125	-5.85693359375E-07
0.458831787109375	0.45843505859375	-6.024169921875E-07
0.456390380859375	0.4569091796875	-6.2652587890625E-07
0.453948974609375	0.4544677734375	-6.512451171875E-07
0.451507568359375	0.451995849609375	-6.6925048828125E-07
0.449066162109375	0.449554443359375	-6.854248046875E-07
0.446624755859375	0.447113037109375	-7.0404052734375E-07
0.444183349609375	0.44464111328125	-7.2265625E-07
0.441741943359375	0.44219970703125	-7.4188232421875E-07
0.439300537109375	0.4398193359375	-7.5592041015625E-07
0.436859130859375	0.437347412109375	-7.7392578125E-07
0.434417724609375	0.434783935546875	-7.8399658203125E-07
0.431976318359375	0.432403564453125	-8.06884765625E-07
0.429534912109375	0.429962158203125	-8.1878662109375E-07
0.427093505859375	0.427490234375	-8.3648681640625E-07
0.424652099609375	0.425048828125	-8.4381103515625E-07
0.422210693359375	0.422637939453125	-8.575439453125E-07
0.419769287109375	0.42034912109375	-8.6700439453125E-07
0.417327880859375	0.417816162109375	-8.7738037109375E-07
0.414886474609375	0.41534423828125	-8.92333984375E-07
0.412445068359375	0.41290283203125	-9.0423583984375E-07
0.410003662109375	0.410491943359375	-9.136962890625E-07
0.407562255859375	0.407958984375	-9.21630859375E-07
0.405120849609375	0.405548095703125	-9.3231201171875E-07
0.402679443359375	0.403167724609375	-9.3994140625E-07
0.400238037109375	0.40069580078125	-9.53369140625E-07
0.397796630859375	0.39825439453125	-9.6099853515625E-07
0.395355224609375	0.395721435546875	-9.7137451171875E-07
0.392913818359375	0.393280029296875	-9.7808837890625E-07
0.390472412109375	0.390899658203125	-9.8968505859375E-07
0.388031005859375	0.3883056640625	-9.954833984375E-07
0.385589599609375	0.385894775390625	-1.00738525390625E-06
0.383148193359375	0.38360595703125	-1.01287841796875E-06
0.380706787109375	0.381134033203125	-1.01898193359375E-06
0.378265380859375	0.378662109375	-1.0260009765625E-06
0.375823974609375	0.376068115234375	-1.0345458984375E-06
0.373382568359375	0.37371826171875	-1.0430908203125E-06
0.370941162109375	0.371307373046875	-1.04705810546875E-06
0.368499755859375	0.368865966796875	-1.05133056640625E-06
0.366058349609375	0.366424560546875	-1.0614013671875E-06
0.363616943359375	0.364013671875	-1.06689453125E-06
0.361175537109375	0.36151123046875	-1.07269287109375E-06
0.358734130859375	0.359130859375	-1.0821533203125E-06
0.356292724609375	0.356689453125	-1.0894775390625E-06
0.353851318359375	0.354217529296875	-1.09405517578125E-06
0.351409912109375	0.35174560546875	-1.1029052734375E-06
0.348968505859375	0.349365234375	-1.1083984375E-06
0.346527099609375	0.34686279296875	-1.1138916015625E-06
0.344085693359375	0.3443603515625	-1.121826171875E-06
0.341644287109375	0.342041015625	-1.1279296875E-06
0.339202880859375	0.339599609375	-1.13372802734375E-06
0.336761474609375	0.3370361328125	-1.14044189453125E-06
0.334320068359375	0.334564208984375	-1.1444091796875E-06
0.331878662109375	0.33221435546875	-1.15020751953125E-06
0.329437255859375	0.329742431640625	-1.156005859375E-06
0.326995849609375	0.32733154296875	-1.16485595703125E-06
0.324554443359375	0.32489013671875	-1.16912841796875E-06
0.322113037109375	0.322509765625	-1.17340087890625E-06
0.319671630859375	0.320037841796875	-1.1810302734375E-06
0.317230224609375	0.317626953125	-1.1859130859375E-06
0.314788818359375	0.315155029296875	-1.1956787109375E-06
0.312347412109375	0.3126220703125	-1.2030029296875E-06
0.309906005859375	0.3101806640625	-1.20819091796875E-06
0.307464599609375	0.307708740234375	-1.212158203125E-06
0.305023193359375	0.30535888671875	-1.22039794921875E-06
0.302581787109375	0.3028564453125	-1.2225341796875E-06
0.300140380859375	0.300506591796875	-1.229248046875E-06
0.297698974609375	0.2979736328125	-1.2347412109375E-06
0.295257568359375	0.295562744140625	-1.24298095703125E-06
0.292816162109375	0.29315185546875	-1.2445068359375E-06
0.290374755859375	0.290771484375	-1.25274658203125E-06
0.287933349609375	0.288238525390625	-1.259765625E-06
0.285491943359375	0.285797119140625	-1.2640380859375E-06
0.283050537109375	0.28326416015625	-1.26922607421875E-06
0.280609130859375	0.28094482421875	-1.27593994140625E-06
0.278167724609375	0.27838134765625	-1.2811279296875E-06
0.275726318359375	0.2760009765625	-1.2860107421875E-06
0.273284912109375	0.273529052734375	-1.29241943359375E-06
0.270843505859375	0.271148681640625	-1.29974365234375E-06
0.268402099609375	0.268646240234375	-1.30340576171875E-06
0.265960693359375	0.2662353515625	-1.30828857421875E-06
0.263519287109375	0.26385498046875	-1.314697265625E-06
0.261077880859375	0.26141357421875	-1.31927490234375E-06
0.258636474609375	0.25885009765625	-1.32354736328125E-06
0.256195068359375	0.256439208984375	-1.33087158203125E-06
0.253753662109375	0.254058837890625	-1.33209228515625E-06
0.251312255859375	0.251556396484375	-1.33636474609375E-06
0.248870849609375	0.249176025390625	-1.3433837890625E-06
0.246429443359375	0.2467041015625	-1.34918212890625E-06
0.243988037109375	0.2442626953125	-1.353759765625E-06
0.241546630859375	0.241790771484375	-1.35833740234375E-06
0.239105224609375	0.2393798828125	-1.36444091796875E-06
0.236663818359375	0.236968994140625	-1.368408203125E-06
0.234222412109375	0.2344970703125	-1.3751220703125E-06
0.231781005859375	0.23199462890625	-1.3800048828125E-06
0.229339599609375	0.229583740234375	-1.38397216796875E-06
0.226898193359375	0.227142333984375	-1.38763427734375E-06
0.224456787109375	0.2247314453125	-1.3897705078125E-06
0.222015380859375	0.222259521484375	-1.39434814453125E-06
0.219573974609375	0.219757080078125	-1.40106201171875E-06
0.217132568359375	0.217437744140625	-1.4068603515625E-06
0.214691162109375	0.214935302734375	-1.40899658203125E-06
0.212249755859375	0.212371826171875	-1.41326904296875E-06
0.209808349609375	0.210113525390625	-1.41845703125E-06
0.207366943359375	0.207733154296875	-1.42181396484375E-06
0.204925537109375	0.2052001953125	-1.42578125E-06
0.202484130859375	0.202789306640625	-1.43096923828125E-06
0.200042724609375	0.20025634765625	-1.4312744140625E-06
0.197601318359375	0.197845458984375	-1.441650390625E-06
0.195159912109375	0.195343017578125	-1.4422607421875E-06
0.192718505859375	0.192840576171875	-1.44622802734375E-06
0.190277099609375	0.19036865234375	-1.4495849609375E-06
0.187835693359375	0.18798828125	-1.4544677734375E-06
0.185394287109375	0.185638427734375	-1.45416259765625E-06
0.182952880859375	0.183197021484375	-1.4599609375E-06
0.180511474609375	0.18072509765625	-1.463623046875E-06
0.178070068359375	0.178314208984375	-1.46942138671875E-06
0.175628662109375	0.1759033203125	-1.473388671875E-06
0.173187255859375	0.173431396484375	-1.474609375E-06
0.170745849609375	0.1710205078125	-1.4794921875E-06
0.168304443359375	0.16851806640625	-1.4849853515625E-06
0.165863037109375	0.16607666015625	-1.4874267578125E-06
0.163421630859375	0.163665771484375	-1.4923095703125E-06
0.160980224609375	0.161224365234375	-1.4935302734375E-06
0.158538818359375	0.158721923828125	-1.49810791015625E-06
0.156097412109375	0.15625	-1.49993896484375E-06
0.153656005859375	0.153778076171875	-1.50360107421875E-06
0.151214599609375	0.151336669921875	-1.507568359375E-06
0.148773193359375	0.14892578125	-1.51153564453125E-06
0.146331787109375	0.146514892578125	-1.5155029296875E-06
0.143890380859375	0.14404296875	-1.5167236328125E-06
0.141448974609375	0.141632080078125	-1.52374267578125E-06
0.139007568359375	0.139312744140625	-1.5301513671875E-06
0.136566162109375	0.136749267578125	-1.52740478515625E-06
0.134124755859375	0.134307861328125	-1.53289794921875E-06
0.131683349609375	0.13189697265625	-1.5350341796875E-06
0.129241943359375	0.129425048828125	-1.5380859375E-06
0.126800537109375	0.12689208984375	-1.54144287109375E-06
0.124359130859375	0.124542236328125	-1.544189453125E-06
0.121917724609375	0.122161865234375	-1.549072265625E-06
0.119476318359375	0.119598388671875	-1.55548095703125E-06
0.117034912109375	0.117156982421875	-1.558837890625E-06
0.114593505859375	0.11474609375	-1.56097412109375E-06
0.112152099609375	0.11236572265625	-1.563720703125E-06
0.109710693359375	0.109954833984375	-1.56646728515625E-06
0.107269287109375	0.107513427734375	-1.56890869140625E-06
0.104827880859375	0.104888916015625	-1.57073974609375E-06
0.102386474609375	0.10260009765625	-1.5777587890625E-06
0.099945068359375	0.10003662109375	-1.580810546875E-06
0.097503662109375	0.097747802734375	-1.58538818359375E-06
0.095062255859375	0.095123291015625	-1.58782958984375E-06
0.092620849609375	0.092864990234375	-1.59332275390625E-06
0.090179443359375	0.09039306640625	-1.59515380859375E-06
0.087738037109375	0.08782958984375	-1.5960693359375E-06
0.090179443359375	0.090423583984375	-1.429443359375E-06
0.092620849609375	0.092803955078125	-1.30279541015625E-06
0.095062255859375	0.095367431640625	-1.1944580078125E-06
0.097503662109375	0.097686767578125	-1.1004638671875E-06
0.099945068359375	0.1002197265625	-1.019287109375E-06
